1532128683.000000
4.000000
0.000000
0.233188
0.302376
0.311345
0.310063
0.308782
0.308782
0.304938
0.303657
0.303657
0.301095
0.301095
0.299813
0.298532
0.299813
0.297251
0.295970
0.297251
0.297251
0.295970
0.297251
0.294688
0.295970
0.294688
0.293407
0.295970
0.293407
0.293407
0.292126
0.293407
0.290845
0.292126
0.290845
0.292126
0.289563
0.290845
0.293407
0.290845
0.289563
0.289563
0.289563
0.289563
0.289563
0.288282
0.289563
0.289563
0.288282
0.292126
0.289563
0.289563
0.288282
0.289563
0.288282
0.288282
0.288282
0.288282
0.288282
0.287001
0.289563
0.288282
0.287001
0.288282
0.288282
0.288282
0.287001
0.287001
0.285720
0.285720
0.287001
0.287001
0.287001
0.285720
0.288282
0.288282
0.289563
0.289563
0.290845
0.289563
0.289563
0.290845
0.290845
0.288282
0.283157
0.290845
0.292126
0.292126
0.293407
0.297251
0.297251
0.288282
0.287001
0.289563
0.293407
0.294688
0.297251
0.295970
0.294688
0.299813
0.295970
0.297251
0.295970
0.297251
0.299813
0.298532
0.303657
0.306220
0.310063
0.311345
0.312626
0.319032
0.312626
0.312626
0.316470
0.321595
0.320313
0.320313
0.322876
0.322876
0.319032
0.321595
0.320313
0.321595
0.321595
0.326720
0.328001
0.322876
0.321595
0.322876
0.328001
0.325438
0.324157
0.324157
0.324157
0.324157
0.325438
0.325438
0.322876
0.322876
0.324157
0.324157
0.324157
0.322876
0.324157
0.325438
0.324157
0.328001
0.326720
0.326720
0.325438
0.329282
0.326720
0.322876
0.325438
0.321595
0.321595
0.326720
0.325438
0.322876
0.321595
0.321595
0.321595
0.322876
0.312626
0.320313
0.330564
0.333126
0.333126
0.334407
0.335689
0.335689
0.334407
0.336970
0.334407
0.333126
0.325438
0.325438
0.306220
0.308782
0.310063
0.320313
0.315188
0.317751
0.317751
0.316470
0.316470
0.339532
0.351064
0.352345
0.351064
0.326720
0.325438
0.325438
0.325438
0.330564
0.330564
0.338251
0.345939
0.347220
0.344657
0.343376
0.342095
0.342095
0.340814
0.338251
0.328001
0.333126
0.336970
0.338251
0.335689
0.335689
0.339532
0.338251
0.340814
0.340814
0.343376
0.347220
0.349782
0.351064
0.348501
0.349782
0.349782
0.347220
0.351064
0.349782
0.357470
0.339532
0.326720
0.353626
0.358751
0.358751
0.358751
0.360032
0.357470
0.357470
0.360032
0.358751
0.360032
0.358751
0.360032
0.354907
0.354907
0.357470
0.349782
0.358751
0.357470
0.360032
0.358751
0.360032
0.360032
0.358751
0.358751
0.361314
0.360032
0.360032
0.360032
0.358751
0.356189
0.316470
0.311345
0.304938
0.301095
0.302376
0.308782
0.307501
0.321595
0.321595
0.326720
0.351064
0.356189
0.358751
0.361314
0.361314
0.360032
0.362595
0.366439
0.370282
0.374126
0.380532
0.380532
0.375407
0.375407
0.376689
0.375407
0.375407
0.376689
0.375407
0.380532
0.377970
0.377970
0.377970
0.376689
0.377970
0.375407
0.372845
0.371564
0.372845
0.375407
0.372845
0.372845
0.371564
0.371564
0.372845
0.372845
0.375407
0.377970
0.377970
0.379251
0.386939
0.384376
0.384376
0.386939
0.388220
0.385657
0.385657
0.384376
0.383095
0.380532
0.377970
0.379251
0.379251
0.377970
0.377970
0.370282
0.374126
0.372845
0.372845
0.371564
0.376689
0.372845
0.376689
0.372845
0.371564
0.371564
0.372845
0.371564
0.371564
0.372845
0.371564
0.371564
0.375407
0.371564
0.370282
0.370282
0.369001
0.371564
0.369001
0.370282
0.369001
0.370282
0.367720
0.369001
0.367720
0.369001
0.369001
0.369001
0.370282
0.367720
0.369001
0.369001
0.367720
0.367720
0.367720
0.369001
0.369001
0.369001
0.367720
0.369001
0.367720
0.369001
0.370282
0.370282
0.369001
0.371564
0.371564
0.372845
0.374126
0.372845
0.377970
0.375407
0.375407
0.363876
0.356189
0.374126
0.379251
0.380532
0.380532
0.374126
0.366439
0.365157
0.379251
0.383095
0.383095
0.383095
0.380532
0.366439
0.365157
0.366439
0.365157
0.362595
0.365157
0.370282
0.369001
0.358751
0.369001
0.370282
0.374126
0.371564
0.370282
0.371564
0.370282
0.375407
0.366439
0.366439
0.367720
0.367720
0.367720
0.366439
0.369001
0.369001
0.369001
0.365157
0.367720
0.366439
0.365157
0.366439
0.367720
0.366439
0.367720
0.366439
0.366439
0.367720
0.365157
0.367720
0.367720
0.367720
0.367720
0.374126
0.367720
0.369001
0.369001
0.367720
0.367720
0.369001
0.370282
0.370282
0.369001
0.369001
0.370282
0.374126
0.369001
0.370282
0.370282
0.367720
0.369001
0.370282
0.370282
0.370282
0.371564
0.369001
0.367720
0.370282
0.370282
0.369001
0.369001
0.369001
0.370282
0.369001
0.371564
0.371564
0.370282
0.370282
0.369001
0.369001
0.370282
0.370282
0.371564
0.371564
0.376689
0.371564
0.372845
0.372845
0.371564
0.363876
0.369001
0.369001
0.369001
0.372845
0.371564
0.369001
0.370282
0.370282
0.371564
0.370282
0.371564
0.371564
0.372845
0.371564
0.372845
0.377970
0.371564
0.371564
0.371564
0.372845
0.371564
0.372845
0.372845
0.372845
0.370282
0.371564
0.372845
0.370282
0.376689
0.370282
0.371564
0.370282
0.375407
0.369001
0.369001
0.371564
0.369001
0.376689
0.369001
0.371564
0.372845
0.371564
0.375407
0.370282
0.371564
0.371564
0.370282
0.375407
0.372845
0.372845
0.372845
0.369001
0.372845
0.372845
0.377970
0.384376
0.388220
0.389501
0.393345
0.395907
0.399751
0.411283
0.406157
0.398470
0.406157
0.407439
0.410001
0.411283
0.411283
0.416408
0.415126
0.415126
0.417689
0.418970
0.424095
0.418970
0.420251
0.418970
0.418970
0.411283
0.420251
0.422814
0.421533
0.420251
0.420251
0.421533
0.420251
0.427939
0.421533
0.420251
0.421533
0.421533
0.421533
0.422814
0.421533
0.420251
0.420251
0.420251
0.425376
0.421533
0.420251
0.422814
0.420251
0.422814
0.422814
0.422814
0.421533
0.427939
0.424095
0.424095
0.424095
0.424095
0.424095
0.425376
0.425376
0.426658
0.424095
0.424095
0.425376
0.424095
0.425376
0.424095
0.427939
0.426658
0.426658
0.426658
0.425376
0.429220
0.426658
0.426658
0.426658
0.424095
0.427939
0.426658
0.426658
0.426658
0.429220
0.427939
0.427939
0.427939
0.426658
0.426658
0.429220
0.427939
0.426658
0.427939
0.430501
0.431783
0.426658
0.429220
0.427939
0.435626
0.429220
0.430501
0.430501
0.429220
0.429220
0.430501
0.430501
0.421533
0.429220
0.429220
0.430501
0.429220
0.430501
0.429220
0.429220
0.430501
0.431783
0.431783
0.430501
0.430501
0.433064
0.431783
0.429220
0.430501
0.433064
0.431783
0.431783
0.438189
0.438189
0.440751
0.443314
0.445876
0.448439
0.452283
0.454845
0.456126
0.456126
0.463814
0.456126
0.457408
0.456126
0.456126
0.452283
0.453564
0.451001
0.452283
0.451001
0.449720
0.451001
0.451001
0.452283
0.448439
0.448439
0.449720
0.448439
0.447158
0.447158
0.451001
0.449720
0.449720
0.448439
0.451001
0.448439
0.452283
0.453564
0.453564
0.452283
0.449720
0.452283
0.451001
0.453564
0.449720
0.452283
0.451001
0.448439
0.449720
0.449720
0.449720
0.458689
0.436908
0.444595
0.449720
0.457408
0.459970
0.458689
0.458689
0.459970
0.457408
0.459970
0.462533
0.462533
0.463814
0.466376
0.466376
0.466376
0.467658
0.466376
0.466376
0.461251
0.459970
0.458689
0.459970
0.468939
0.462533
0.467658
0.479189
0.479189
0.479189
0.480470
0.476626
0.471501
0.474064
0.472783
0.470220
0.472783
0.472783
0.472783
0.468939
0.471501
0.472783
0.476626
0.480470
0.479189
0.485595
0.486876
0.492002
0.494564
0.499689
0.495845
0.494564
0.493283
0.492002
0.492002
0.492002
0.492002
0.495845
0.489439
0.492002
0.492002
0.493283
0.497127
0.497127
0.506095
0.498408
0.499689
0.502252
0.498408
0.498408
0.483033
0.479189
0.476626
0.472783
0.474064
0.472783
0.472783
0.472783
0.472783
0.483033
0.476626
0.483033
0.476626
0.476626
0.471501
0.474064
0.474064
0.471501
0.471501
0.461251
0.470220
0.471501
0.472783
0.472783
0.471501
0.472783
0.474064
0.475345
0.479189
0.485595
0.481751
0.483033
0.484314
0.489439
0.494564
0.492002
0.493283
0.489439
0.486876
0.483033
0.483033
0.488158
0.513783
0.538127
0.547095
0.543252
0.550939
0.576564
0.543252
0.549658
0.558627
0.576564
0.576564
0.579127
0.580408
0.574002
0.572721
0.571439
0.574002
0.577846
0.574002
0.572721
0.572721
0.575283
0.577846
0.580408
0.589377
0.588096
0.590658
0.593221
0.594502
0.594502
0.595783
0.595783
0.604752
0.609877
0.620127
0.618846
0.621408
0.620127
0.620127
0.620127
0.620127
0.618846
0.620127
0.618846
0.618846
0.617564
0.602189
0.620127
0.636783
0.620127
0.606033
0.600908
0.603471
0.599627
0.597064
0.600908
0.599627
0.593221
0.598346
0.594502
0.593221
0.588096
0.584252
0.585533
0.581689
0.581689
0.580408
0.579127
0.584252
0.580408
0.579127
0.579127
0.576564
0.577846
0.577846
0.576564
0.577846
0.579127
0.581689
0.579127
0.582971
0.580408
0.581689
0.580408
0.585533
0.584252
0.585533
0.590658
0.588096
0.589377
0.591939
0.595783
0.598346
0.599627
0.600908
0.600908
0.598346
0.603471
0.599627
0.607314
0.602189
0.600908
0.600908
0.598346
0.598346
0.599627
0.600908
0.604752
0.602189
0.604752
0.602189
0.600908
0.600908
0.603471
0.608596
0.598346
0.598346
0.597064
0.597064
0.597064
0.597064
0.595783
0.595783
0.595783
0.598346
0.594502
0.594502
0.593221
0.598346
0.594502
0.595783
0.600908
0.595783
0.597064
0.598346
0.599627
0.599627
0.590658
0.606033
0.606033
0.607314
0.607314
0.608596
0.609877
0.611158
0.611158
0.611158
0.607314
0.607314
0.608596
0.608596
0.609877
0.613721
0.607314
0.607314
0.607314
0.608596
0.608596
0.611158
0.604752
0.604752
0.604752
0.608596
0.611158
0.613721
0.615002
0.617564
0.615002
0.618846
0.615002
0.613721
0.611158
0.609877
0.608596
0.608596
0.607314
0.604752
0.603471
0.603471
0.606033
0.602189
0.602189
0.600908
0.599627
0.598346
0.598346
0.595783
0.597064
0.593221
0.591939
0.593221
0.590658
0.591939
0.593221
0.600908
0.606033
0.611158
0.603471
0.604752
0.606033
0.606033
0.606033
0.608596
0.606033
0.604752
0.603471
0.603471
0.608596
0.603471
0.602189
0.602189
0.602189
0.603471
0.602189
0.603471
0.606033
0.606033
0.594502
0.607314
0.612439
0.603471
0.604752
0.603471
0.602189
0.598346
0.604752
0.597064
0.594502
0.594502
0.593221
0.593221
0.593221
0.591939
0.590658
0.591939
0.591939
0.590658
0.589377
0.588096
0.591939
0.589377
0.597064
0.589377
0.589377
0.589377
0.589377
0.585533
0.586814
0.585533
0.585533
0.586814
0.589377
0.589377
0.582971
0.582971
0.584252
0.588096
0.586814
0.586814
0.591939
0.590658
0.590658
0.593221
0.593221
0.590658
0.590658
0.589377
0.590658
0.588096
0.585533
0.585533
0.586814
0.582971
0.585533
0.582971
0.589377
0.584252
0.581689
0.585533
0.582971
0.582971
0.581689
0.581689
0.580408
0.581689
0.581689
0.581689
0.580408
0.581689
0.585533
0.582971
0.586814
0.581689
0.580408
0.581689
0.580408
0.579127
0.568877
0.577846
0.577846
0.579127
0.577846
0.577846
0.580408
0.579127
0.575283
0.576564
0.576564
0.575283
0.576564
0.574002
0.576564
0.576564
0.577846
0.576564
0.582971
0.575283
0.576564
0.575283
0.575283
0.575283
0.575283
0.575283
0.574002
0.579127
0.572721
0.574002
0.571439
0.572721
0.570158
0.570158
0.571439
0.571439
0.571439
0.576564
0.570158
0.571439
0.570158
0.568877
0.575283
0.575283
0.570158
0.570158
0.570158
0.571439
0.568877
0.568877
0.568877
0.568877
0.567595
0.567595
0.572721
0.567595
0.567595
0.566314
0.575283
0.565033
0.566314
0.565033
0.566314
0.565033
0.565033
0.563752
0.565033
0.565033
0.565033
0.566314
0.563752
0.565033
0.565033
0.563752
0.562470
0.562470
0.563752
0.563752
0.570158
0.563752
0.554783
0.574002
0.570158
0.568877
0.570158
0.572721
0.577846
0.571439
0.570158
0.572721
0.577846
0.572721
0.571439
0.570158
0.570158
0.568877
0.568877
0.572721
0.570158
0.570158
0.568877
0.570158
0.574002
0.568877
0.589377
0.604752
0.588096
0.591939
0.599627
0.600908
0.600908
0.606033
0.607314
0.613721
0.617564
0.623971
0.635502
0.680346
0.589644
0.544800
0.548644
0.565300
0.570425
0.570425
0.576831
0.580675
0.590925
0.592206
0.590925
0.594769
0.593487
0.590925
0.581956
0.574269
0.566581
0.569144
0.555050
0.549925
0.546081
0.543519
0.542237
0.548644
0.557612
0.565300
0.569144
0.571706
0.574269
0.570425
0.566581
0.565300
0.565300
0.569144
0.572987
0.572987
0.578112
0.580675
0.572987
0.570425
0.561456
0.562737
0.548644
0.553769
0.551206
0.547362
0.544800
0.542237
0.538394
0.535831
0.538394
0.531987
0.530706
0.526862
0.525581
0.523018
0.521737
0.524300
0.519175
0.520456
0.516612
0.516612
0.505081
0.508925
0.507643
0.512768
0.507643
0.508925
0.510206
0.519175
0.511487
0.511487
0.515331
0.516612
0.517893
0.521737
0.523018
0.525581
0.530706
0.530706
0.530706
0.529425
0.528144
0.529425
0.526862
0.524300
0.524300
0.523018
0.523018
0.521737
0.520456
0.524300
0.523018
0.521737
0.525581
0.526862
0.525581
0.525581
0.525581
0.524300
0.523018
0.523018
0.525581
0.529425
0.524300
0.526862
0.525581
0.526862
0.528144
0.526862
0.535831
0.528144
0.531987
0.531987
0.530706
0.529425
0.530706
0.537112
0.528144
0.530706
0.529425
0.528144
0.519175
0.528144
0.526862
0.525581
0.525581
0.526862
0.531987
0.524300
0.525581
0.526862
0.524300
0.523018
0.523018
0.524300
0.526862
0.520456
0.529425
0.523018
0.521737
0.521737
0.519175
0.519175
0.525581
0.520456
0.521737
0.519175
0.521737
0.521737
0.520456
0.520456
0.520456
0.520456
0.521737
0.520456
0.523018
0.521737
0.521737
0.524300
0.525581
0.533269
0.530706
0.528144
0.530706
0.529425
0.528144
0.528144
0.525581
0.526862
0.528144
0.529425
0.525581
0.523018
0.526862
0.529425
0.524300
0.525581
0.525581
0.521737
0.524300
0.526862
0.521737
0.519175
0.517893
0.517893
0.519175
0.519175
0.520456
0.519175
0.520456
0.520456
0.519175
0.523018
0.519175
0.519175
0.519175
0.516612
0.519175
0.523018
0.526862
0.529425
0.521737
0.533269
0.538394
0.535831
0.537112
0.535831
0.535831
0.533269
0.533269
0.533269
0.529425
0.528144
0.533269
0.525581
0.528144
0.526862
0.525581
0.529425
0.520456
0.521737
0.519175
0.519175
0.514050
0.512768
0.515331
0.512768
0.519175
0.511487
0.510206
0.510206
0.511487
0.507643
0.508925
0.515331
0.510206
0.510206
0.510206
0.508925
0.506362
0.505081
0.503800
0.505081
0.505081
0.506362
0.502518
0.502518
0.502518
0.499956
0.497393
0.498675
0.503800
0.499956
0.501237
0.505081
0.512768
0.510206
0.516612
0.517893
0.514050
0.519175
0.517893
0.520456
0.520456
0.521737
0.523018
0.526862
0.524300
0.519175
0.520456
0.521737
0.523018
0.523018
0.524300
0.523018
0.524300
0.524300
0.521737
0.521737
0.521737
0.521737
0.511487
0.520456
0.519175
0.523018
0.519175
0.508925
0.499956
0.494831
0.502518
0.508925
0.505081
0.511487
0.512768
0.515331
0.517893
0.521737
0.529425
0.534550
0.538394
0.544800
0.549925
0.552487
0.555050
0.556331
0.557612
0.555050
0.553769
0.553769
0.553769
0.552487
0.548644
0.546081
0.544800
0.544800
0.544800
0.546081
0.544800
0.547362
0.543519
0.540956
0.542237
0.542237
0.542237
0.542237
0.540956
0.546081
0.543519
0.540956
0.539675
0.540956
0.540956
0.540956
0.540956
0.538394
0.543519
0.540956
0.540956
0.542237
0.542237
0.543519
0.540956
0.538394
0.539675
0.540956
0.543519
0.546081
0.543519
0.546081
0.546081
0.552487
0.543519
0.544800
0.547362
0.551206
0.555050
0.557612
0.562737
0.565300
0.565300
0.564019
0.557612
0.560175
0.558894
0.558894
0.557612
0.556331
0.556331
0.553769
0.552487
0.548644
0.548644
0.543519
0.546081
0.547362
0.548644
0.544800
0.544800
0.542237
0.547362
0.544800
0.551206
0.551206
0.551206
0.549925
0.549925
0.549925
0.551206
0.548644
0.548644
0.549925
0.549925
0.552487
0.547362
0.544800
0.548644
0.547362
0.544800
0.551206
0.548644
0.552487
0.557612
0.562737
0.572987
0.574269
0.575550
0.575550
0.576831
0.576831
0.574269
0.574269
0.576831
0.572987
0.569144
0.565300
0.565300
0.565300
0.564019
0.564019
0.564019
0.561456
0.561456
0.560175
0.558894
0.556331
0.556331
0.558894
0.555050
0.552487
0.556331
0.553769
0.552487
0.555050
0.555050
0.555050
0.553769
0.551206
0.551206
0.553769
0.549925
0.553769
0.543519
0.555050
0.555050
0.556331
0.555050
0.549925
0.549925
0.549925
0.547362
0.548644
0.552487
0.546081
0.548644
0.548644
0.546081
0.547362
0.544800
0.543519
0.546081
0.544800
0.547362
0.544800
0.546081
0.544800
0.543519
0.540956
0.544800
0.543519
0.544800
0.543519
0.543519
0.546081
0.542237
0.542237
0.542237
0.542237
0.538394
0.540956
0.537112
0.539675
0.539675
0.540956
0.538394
0.538394
0.538394
0.539675
0.538394
0.538394
0.547362
0.543519
0.543519
0.544800
0.543519
0.540956
0.540956
0.540956
0.539675
0.538394
0.538394
0.543519
0.540956
0.538394
0.540956
0.543519
0.538394
0.540956
0.537112
0.537112
0.535831
0.535831
0.535831
0.537112
0.533269
0.534550
0.531987
0.531987
0.531987
0.531987
0.531987
0.529425
0.523018
0.533269
0.529425
0.531987
0.529425
0.528144
0.530706
0.529425
0.529425
0.528144
0.529425
0.528144
0.531987
0.529425
0.528144
0.526862
0.525581
0.526862
0.526862
0.523018
0.530706
0.524300
0.528144
0.528144
0.524300
0.524300
0.523018
0.521737
0.523018
0.523018
0.524300
0.523018
0.521737
0.523018
0.524300
0.524300
0.521737
0.523018
0.521737
0.520456
0.521737
0.520456
0.519175
0.517893
0.520456
0.519175
0.521737
0.516612
0.520456
0.520456
0.516612
0.519175
0.521737
0.515331
0.516612
0.516612
0.516612
0.515331
0.514050
0.515331
0.515331
0.515331
0.514050
0.515331
0.514050
0.512768
0.516612
0.514050
0.512768
0.511487
0.512768
0.511487
0.507643
0.506362
0.506362
0.506362
0.506362
0.506362
0.503800
0.503800
0.492268
0.502518
0.501237
0.501237
0.501237
0.506362
0.501237
0.499956
0.502518
0.499956
0.502518
0.502518
0.502518
0.499956
0.499956
0.501237
0.499956
0.506362
0.501237
0.501237
0.499956
0.503800
0.501237
0.499956
0.498675
0.498675
0.497393
0.502518
0.497393
0.503800
0.497393
0.497393
0.496112
0.494831
0.494831
0.493550
0.494831
0.496112
0.494831
0.498675
0.494831
0.496112
0.494831
0.494831
0.494831
0.494831
0.494831
0.492268
0.493550
0.492268
0.494831
0.493550
0.494831
0.496112
0.496112
0.499956
0.496112
0.494831
0.496112
0.497393
0.493550
0.497393
0.498675
0.492268
0.492268
0.492268
0.496112
0.492268
0.492268
0.493550
0.493550
0.492268
0.490987
0.490987
0.489706
0.490987
0.489706
0.490987
0.488425
0.489706
0.479456
0.489706
0.490987
0.489706
0.488425
0.492268
0.489706
0.489706
0.488425
0.489706
0.490987
0.488425
0.489706
0.489706
0.489706
0.487143
0.489706
0.487143
0.490987
0.485862
0.487143
0.484581
0.484581
0.485862
0.485862
0.488425
0.489706
0.489706
0.487143
0.483300
0.484581
0.483300
0.487143
0.492268
0.484581
0.473050
0.461518
0.464081
0.473050
0.482018
0.480737
0.484581
0.482018
0.483300
0.484581
0.484581
0.487143
0.488425
0.484581
0.482018
0.466643
0.465362
0.467925
0.467925
0.473050
0.474331
0.476893
0.476893
0.476893
0.475612
0.475612
0.475612
0.476893
0.475612
0.479456
0.485862
0.480737
0.484581
0.484581
0.485862
0.487143
0.487143
0.490987
0.485862
0.485862
0.488425
0.487143
0.483300
0.482018
0.483300
0.475612
0.483300
0.484581
0.492268
0.482018
0.482018
0.480737
0.480737
0.480737
0.482018
0.479456
0.474331
0.466643
0.478175
0.483300
0.482018
0.484581
0.485862
0.484581
0.483300
0.483300
0.485862
0.483300
0.487143
0.485862
0.493550
0.485862
0.487143
0.487143
0.487143
0.484581
0.485862
0.485862
0.485862
0.490987
0.482018
0.485862
0.482018
0.484581
0.483300
0.483300
0.480737
0.480737
0.469206
0.464081
0.461518
0.462800
0.462800
0.455112
0.446143
0.439737
0.434612
0.434612
0.441018
0.441018
0.441018
0.444862
0.451268
0.447425
0.444862
0.448706
0.444862
0.444862
0.442299
0.446143
0.444862
0.446143
0.444862
0.443581
0.446143
0.446143
0.446143
0.443581
0.442299
0.448706
0.447425
0.441018
0.448706
0.442299
0.441018
0.430768
0.438456
0.438456
0.439737
0.435893
0.435893
0.435893
0.434612
0.438456
0.437174
0.437174
0.437174
0.433331
0.430768
0.433331
0.432049
0.430768
0.430768
0.429487
0.432049
0.428206
0.429487
0.430768
0.425643
0.430768
0.425643
0.425643
0.423081
0.424362
0.421799
0.425643
0.423081
0.421799
0.421799
0.420518
0.419237
0.421799
0.419237
0.419237
0.419237
0.419237
0.419237
0.416674
0.416674
0.419237
0.414112
0.412831
0.415393
0.416674
0.425643
0.447425
0.460237
0.469206
0.473050
0.473050
0.475612
0.485862
0.483300
0.485862
0.490987
0.497393
0.492268
0.492268
0.490987
0.492268
0.492268
0.492268
0.490987
0.490987
0.490987
0.492268
0.489706
0.490987
0.488425
0.492268
0.489706
0.487143
0.487143
0.484581
0.484581
0.476893
0.484581
0.482018
0.487143
0.482018
0.483300
0.480737
0.479456
0.480737
0.449987
0.447425
0.448706
0.460237
0.464081
0.458956
0.465362
0.460237
0.457675
0.453831
0.456393
0.451268
0.448706
0.452550
0.448706
0.448706
0.449987
0.451268
0.448706
0.456393
0.449987
0.452550
0.453831
0.453831
0.452550
0.451268
0.453831
0.455112
0.478175
0.480737
0.479456
0.473050
0.485862
0.487143
0.503800
0.505081
0.469206
0.460237
0.456393
0.451268
0.446143
0.460237
0.465362
0.465362
0.471768
0.470487
0.458956
0.469206
0.476893
0.465362
0.447425
0.446143
0.452550
0.444862
0.447425
0.448706
0.465362
0.464081
0.465362
0.465362
0.464081
0.473050
0.470487
0.453831
0.448706
0.465362
0.465362
0.470487
0.470487
0.469206
0.470487
0.464081
0.471768
0.469206
0.470487
0.475612
0.473050
0.475612
0.480737
0.478175
0.473050
0.479456
0.475612
0.490987
0.492268
0.488425
0.483300
0.480737
0.480737
0.480737
0.478175
0.478175
0.478175
0.476893
0.478175
0.478175
0.478175
0.479456
0.479456
0.479456
0.473050
0.465362
0.479456
0.489706
0.490987
0.469206
0.461518
0.460237
0.447425
0.446143
0.446143
0.446143
0.447425
0.449987
0.456393
0.447425
0.447425
0.444862
0.446143
0.446143
0.444862
0.443581
0.443581
0.443581
0.443581
0.442299
0.442299
0.444862
0.448706
0.448706
0.451268
0.449987
0.449987
0.448706
0.441018
0.439737
0.437174
0.438456
0.444862
0.444862
0.446143
0.447425
0.446143
0.446143
0.448706
0.446143
0.452550
0.448706
0.448706
0.447425
0.444862
0.443581
0.455112
0.455112
0.446143
0.451268
0.455112
0.464081
0.473050
0.480737
0.492268
0.499956
0.507643
0.519175
0.517893
0.519175
0.521737
0.520456
0.520456
0.517893
0.517893
0.514050
0.512768
0.508925
0.511487
0.510206
0.507643
0.508925
0.505081
0.507643
0.501237
0.505081
0.505081
0.501237
0.501237
0.505081
0.507643
0.510206
0.512768
0.514050
0.514050
0.515331
0.516612
0.520456
0.519175
0.514050
0.517893
0.517893
0.515331
0.511487
0.507643
0.498675
0.496112
0.501237
0.508925
0.512768
0.501237
0.497393
0.503800
0.516612
0.516612
0.514050
0.530706
0.552487
0.570425
0.594769
0.594769
0.598612
0.610144
0.611425
0.607581
0.605019
0.606300
0.602456
0.602456
0.602456
0.605019
0.605019
0.608863
0.607581
0.616550
0.601175
0.608863
0.617831
0.610144
0.605019
0.601175
0.601175
0.598612
0.592206
0.574269
0.570425
0.570425
0.575550
0.589644
0.592206
0.594769
0.587081
0.588362
0.584519
0.584519
0.581956
0.583237
0.580675
0.583237
0.579394
0.575550
0.579394
0.578112
0.578112
0.578112
0.575550
0.572987
0.575550
0.575550
0.574269
0.572987
0.572987
0.570425
0.571706
0.570425
0.570425
0.569144
0.566581
0.570425
0.567862
0.566581
0.567862
0.567862
0.571706
0.567862
0.566581
0.569144
0.567862
0.571706
0.566581
0.564019
0.566581
0.565300
0.562737
0.564019
0.562737
0.564019
0.566581
0.566581
0.567862
0.567862
0.565300
0.569144
0.569144
0.571706
0.578112
0.576831
0.579394
0.580675
0.580675
0.580675
0.578112
0.578112
0.578112
0.580675
0.567862
0.580675
0.578112
0.587081
0.579394
0.581956
0.585800
0.584519
0.560175
0.561456
0.570425
0.594769
0.607581
0.608863
0.603737
0.606300
0.610144
0.610144
0.615269
0.615269
0.619113
0.615269
0.615269
0.612706
0.615269
0.613988
0.615269
0.612706
0.613988
0.608863
0.605019
0.602456
0.605019
0.567862
0.538394
0.533269
0.583237
0.607581
0.629363
0.633206
0.630644
0.628081
0.631925
0.639613
0.649863
0.651144
0.658831
0.660113
0.652425
0.649863
0.660113
0.672925
0.669081
0.672925
0.669081
0.675488
0.680613
0.690863
0.695988
0.702394
0.708800
0.707519
0.708800
0.711363
0.710082
0.710082
0.706238
0.701113
0.698550
0.697269
0.694706
0.693425
0.690863
0.689582
0.687019
0.688300
0.685738
0.687019
0.684456
0.684456
0.675488
0.688300
0.683175
0.679331
0.681894
0.680613
0.678050
0.679331
0.675488
0.675488
0.675488
0.680613
0.679331
0.674206
0.671644
0.670363
0.670363
0.678050
0.672925
0.670363
0.670363
0.672925
0.676769
0.669081
0.671644
0.667800
0.670363
0.669081
0.675488
0.672925
0.670363
0.669081
0.676769
0.679331
0.675488
0.678050
0.676769
0.679331
0.679331
0.683175
0.687019
0.646019
0.619113
0.658831
0.640894
0.658831
0.646019
0.647300
0.675488
0.678050
0.681894
0.687019
0.695988
0.699832
0.710082
0.688300
0.688300
0.693425
0.688300
0.695988
0.693425
0.695988
0.663956
0.661394
0.689582
0.724175
0.728019
0.733144
0.730582
0.729300
0.730582
0.728019
0.725457
0.722894
0.719050
0.716488
0.716488
0.712644
0.711363
0.708800
0.699832
0.708800
0.710082
0.708800
0.710082
0.713925
0.706238
0.710082
0.711363
0.710082
0.711363
0.715207
0.717769
0.719050
0.721613
0.722894
0.722894
0.725457
0.725457
0.724175
0.725457
0.722894
0.722894
0.726738
0.722894
0.726738
0.728019
0.729300
0.735707
0.745957
0.756207
0.771582
0.771582
0.777988
0.786957
0.789519
0.790801
0.795926
0.794644
0.790801
0.789519
0.789519
0.785676
0.783113
0.780551
0.788238
0.779269
0.779269
0.775425
0.777988
0.777988
0.774144
0.774144
0.772863
0.772863
0.779269
0.775425
0.774144
0.771582
0.774144
0.771582
0.771582
0.769019
0.769019
0.770301
0.774144
0.783113
0.775425
0.771582
0.772863
0.770301
0.769019
0.770301
0.769019
0.770301
0.770301
0.769019
0.771582
0.770301
0.767738
0.761332
0.766457
0.767738
0.763894
0.771582
0.762613
0.763894
0.766457
0.763894
0.765175
0.761332
0.766457
0.762613
0.761332
0.758769
0.758769
0.758769
0.760050
0.751082
0.751082
0.751082
0.752363
0.753644
0.757488
0.754925
0.754925
0.753644
0.752363
0.751082
0.752363
0.749800
0.749800
0.740832
0.756207
0.769019
0.767738
0.767738
0.770301
0.774144
0.769019
0.767738
0.771582
0.775425
0.757488
0.745957
0.749800
0.752363
0.762613
0.765175
0.766457
0.771582
0.779269
0.772863
0.772863
0.770301
0.770301
0.769019
0.766457
0.763894
0.763894
0.767738
0.767738
0.769019
0.763894
0.763894
0.762613
0.769019
0.770301
0.770301
0.770301
0.774144
0.772863
0.771582
0.769019
0.769019
0.767738
0.766457
0.766457
0.763894
0.763894
0.751082
0.762613
0.758769
0.757488
0.762613
0.754925
0.756207
0.754925
0.757488
0.754925
0.757488
0.753644
0.753644
0.751082
0.751082
0.748519
0.748519
0.742113
0.739550
0.736988
0.734425
0.731863
0.724175
0.722894
0.721613
0.720332
0.721613
0.720332
0.720332
0.715207
0.717769
0.715207
0.716488
0.708800
0.711363
0.706238
0.703675
0.703675
0.703675
0.717769
0.729300
0.734425
0.733144
0.733144
0.729300
0.733144
0.734425
0.735707
0.738269
0.744675
0.739550
0.745957
0.743394
0.742113
0.744675
0.745957
0.744675
0.743394
0.747238
0.742113
0.738269
0.736988
0.739550
0.739550
0.740832
0.742113
0.747238
0.747238
0.748519
0.749800
0.758769
0.765175
0.761332
0.761332
0.762613
0.762613
0.766457
0.771582
0.775425
0.779269
0.775425
0.793363
0.795926
0.804894
0.806176
0.808738
0.810019
0.808738
0.808738
0.815144
0.822832
0.822832
0.824113
0.826676
0.827957
0.824113
0.821551
0.824113
0.826676
0.827957
0.829238
0.831801
0.839488
0.848457
0.852301
0.865113
0.875363
0.880488
0.880488
0.883051
0.876645
0.872801
0.870238
0.865113
0.858707
0.854863
0.851020
0.845894
0.842051
0.838207
0.840769
0.829238
0.829238
0.834363
0.824113
0.821551
0.820269
0.820269
0.816426
0.817707
0.816426
0.816426
0.811301
0.807457
0.808738
0.808738
0.812582
0.806176
0.816426
0.818988
0.817707
0.815144
0.813863
0.827957
0.818988
0.817707
0.812582
0.810019
0.806176
0.808738
0.804894
0.804894
0.807457
0.812582
0.820269
0.824113
0.825394
0.830519
0.825394
0.824113
0.808738
0.818988
0.820269
0.813863
0.813863
0.812582
0.817707
0.815144
0.806176
0.804894
0.801051
0.803613
0.789519
0.789519
0.797207
0.797207
0.793363
0.794644
0.797207
0.797207
0.785676
0.739550
0.748519
0.731863
0.753644
0.758769
0.760050
0.760050
0.758769
0.756207
0.758769
0.757488
0.754925
0.756207
0.754925
0.752363
0.751082
0.752363
0.749800
0.748519
0.753644
0.752363
0.751082
0.749800
0.751082
0.747238
0.745957
0.751082
0.760050
0.762613
0.775425
0.779269
0.777988
0.776707
0.777988
0.785676
0.781832
0.794644
0.790801
0.794644
0.797207
0.802332
0.802332
0.798488
0.807457
0.812582
0.813863
0.804894
0.807457
0.802332
0.752363
0.754925
0.757488
0.758769
0.760050
0.758769
0.762613
0.763894
0.785676
0.792082
