2.678644
2.649177
2.62996
2.620991
2.631241
2.650458
2.647896
2.647896
2.645334
2.123895
2.389098
2.416003
2.399348
2.349382
2.391661
2.378849
2.412159
2.486468
2.395504
2.38013
2.505685
2.541558
2.558214
2.485187
2.546683
2.556932
2.535152
2.396785
2.610742
2.646615
2.600492
2.582556
2.752891
2.752891
2.737516
2.717018
2.71958
2.736235
2.713174
2.701643
2.6978
2.636303
2.422347
2.357069
2.435221
2.486468
2.381411
2.419847
2.605617
2.628678
2.632522
2.650458
2.646615
2.638928
2.649177
2.668395
2.699143
2.746547
2.781138
2.824698
2.855447
2.866977
2.873383
2.860571
2.845197
2.832386
2.822136
2.804199
2.791388
2.786263
2.801637
2.792669
2.787544
2.783701
2.778576
2.773451
2.743984
2.756796
2.752953
2.73886
2.736297
2.736297
2.746547
2.73886
2.743984
2.740141
2.724766
2.720923
2.718361
2.726048
2.723485
2.719642
2.687613
2.681207
2.683769
2.677363
2.674801
2.690175
2.667114
2.678644
2.699143
2.694018
2.68505
2.681207
2.683769
2.691456
2.701705
2.487749
2.448032
2.469812
2.472375
2.457001
2.446751
2.431377
2.400629
2.547964
2.574869
2.327602
2.294291
2.31479
2.328883
2.427534
2.637647
2.674801
2.697862
2.682488
2.678644
2.701705
2.70683
2.731173
2.749109
2.777295
2.799075
2.824698
2.845197
2.851603
2.851603
2.842635
2.828542
2.81573
2.808043
2.79395
2.781138
2.769608
2.761921
2.758077
2.745265
2.741422
2.681207
2.681207
2.678644
2.687613
2.696581
2.718361
2.732454
2.741422
2.749109
2.745265
2.741422
2.735016
2.731173
2.723485
2.724766
2.720923
2.720923
2.708111
2.700424
2.694018
2.688894
2.70683
2.700424
2.683769
2.687613
2.681207
2.669676
2.668395
2.681207
2.676082
2.664551
2.672238
2.681207
2.665833
2.659427
2.67352
2.682488
2.674801
2.686331
2.691456
2.6953
2.702987
2.711955
2.705549
2.701705
2.701705
2.700424
2.701705
2.6953
2.691456
2.686331
2.679925
2.678644
2.682488
2.67352
2.655583
2.660708
2.678644
2.65174
2.640209
2.64149
2.636365
2.62996
2.623554
2.620991
2.618429
2.620991
2.617148
2.620991
2.618429
2.618429
2.620991
2.618429
2.609461
2.628678
2.588962
2.581275
2.587681
2.581275
2.577431
2.591524
2.603055
2.610742
2.65174
2.694018
2.745265
2.788826
2.834948
2.864415
2.900288
2.923349
2.922068
2.918224
2.9131
2.89132
2.861853
2.840073
2.810606
2.792669
2.76064
2.656864
2.650458
2.650458
2.644053
2.642771
2.64149
2.614585
2.610742
2.596649
2.604336
2.590243
2.591524
2.569744
2.442908
2.398067
2.417284
2.417284
2.449314
2.465969
2.463407
2.441627
2.533871
2.549245
2.523622
2.513372
2.522341
2.615867
2.631241
2.640209
2.668395
2.708111
2.731173
2.75039
2.761921
2.769608
2.840073
2.893882
2.882351
2.877227
2.920787
2.918224
2.905412
2.899007
2.888757
2.869539
2.860571
2.869539
2.864415
2.841354
2.828542
2.797794
2.784982
2.78242
2.779857
2.778576
2.787544
2.783701
2.769608
2.776014
2.787544
2.78242
2.778576
2.774733
2.765764
2.751671
2.747828
2.749109
2.754234
2.749109
2.740141
2.735016
2.720923
2.714517
2.719642
2.710674
2.701705
2.699143
2.705549
2.708111
2.701705
2.694018
2.692737
2.68505
2.68505
2.681207
2.678644
2.677363
2.67352
2.670957
2.669676
2.650458
2.672238
2.67352
2.668395
2.654302
2.649177
2.65174
2.642771
2.646615
2.633803
2.633803
2.628678
2.681207
2.701705
2.71708
2.758077
2.773451
2.783701
2.781138
2.781138
2.788826
2.804199
2.824698
2.843916
2.855447
2.864415
2.860571
2.864415
2.861853
2.845197
2.850322
2.850322
2.842635
2.855447
2.861853
2.860571
2.872102
2.632522
2.594087
2.833667
2.822136
2.784982
2.79395
2.804199
2.823417
2.860571
2.582556
2.592805
2.613304
2.569744
2.395504
2.350663
2.582556
2.660708
2.605617
2.751671
2.724766
2.916943
2.93488
2.947629
2.942505
2.925849
2.9156
2.900226
2.89382
2.889977
2.886133
2.882289
2.888695
2.906632
2.941224
2.977097
2.989908
2.988627
2.992471
2.98094
2.975815
2.973253
2.960441
2.957879
2.942505
2.946348
2.924568
2.929693
2.930974
2.923287
2.916881
2.897664
2.895101
2.884852
2.87204
2.875884
2.870759
2.896382
2.925849
2.602993
2.700362
2.692675
2.714455
2.737516
2.740079
2.55687
2.706768
2.702925
2.690113
2.688832
2.681145
2.667052
2.674739
2.677301
2.679863
2.670895
2.663208
2.656802
2.454376
2.536372
2.527403
2.473594
2.601712
2.622211
2.583775
2.568401
2.620929
2.594025
2.565839
2.547902
2.528685
2.733673
2.76314
2.787482
2.786201
2.814387
2.843854
2.887414
2.938661
2.993752
3.062935
3.107777
3.141087
3.162867
3.167992
3.160305
3.142368
3.130838
3.115463
3.088559
3.074466
3.064217
3.053967
3.044999
3.027062
3.018094
3.016813
3.00272
2.986065
2.977097
2.971972
2.966847
2.963004
2.954035
2.95916
2.950192
2.939942
2.951473
2.925849
2.911757
2.905351
2.941224
2.896382
2.945067
2.939942
2.93738
2.936099
2.652959
2.380068
2.560776
2.600492
2.536434
2.605617
2.627397
2.64149
2.660708
2.682488
2.709393
2.735016
2.872102
2.888757
2.896444
2.888757
2.872102
2.869539
2.735016
2.649177
2.65174
2.694018
2.702987
2.720923
2.737578
2.733735
2.735016
2.743984
2.740141
2.735016
2.691456
2.713236
2.674801
2.654302
2.779857
2.802918
2.861853
2.872102
2.861853
2.849041
2.845197
2.778576
2.410878
2.592805
2.670957
2.682488
2.579994
2.713236
2.595368
2.590243
2.594087
2.626116
2.535152
2.620991
2.740141
2.720923
2.745265
2.768327
2.801637
2.822136
2.828542
2.818293
2.829823
2.83751
2.841354
2.840073
2.832386
2.822136
2.824698
2.81573
2.806762
2.805481
2.820855
2.81573
2.801637
2.805481
2.822136
2.822136
2.800356
2.78242
2.806762
2.791388
2.788826
2.786263
2.790107
2.790107
2.788826
2.790107
2.765764
2.756796
2.749109
2.736297
2.75039
2.743984
2.731173
2.720923
2.719642
2.426252
2.745265
2.846478
2.877227
2.868258
2.875946
2.883632
2.822136
2.795231
2.811887
2.833667
2.897726
2.907975
2.959222
2.965566
2.966847
2.919444
2.909194
2.948911
2.939942
2.923287
2.911757
2.911757
2.907913
2.904069
2.907913
2.542778
2.389036
2.435221
2.550527
2.650458
2.756796
2.788826
2.817011
2.843916
2.893882
2.872102
2.88107
2.88107
2.872102
2.773389
2.770827
2.613242
2.619648
2.597868
2.592743
2.601712
2.576088
2.565839
2.660646
2.751609
2.786201
2.823355
2.825918
2.82848
2.840011
2.842573
2.834886
2.840011
2.888695
2.939942
3.011688
3.062935
3.101371
3.138525
3.141087
3.147493
3.130838
3.112901
3.079591
3.04628
3.037312
3.027062
3.010407
2.992471
2.971972
2.952754
2.948911
2.918162
2.910475
2.906632
2.930974
2.932255
2.93738
2.939942
2.939942
2.946348
2.939942
2.942505
2.93738
2.936099
2.939942
2.943786
2.938661
2.93738
2.927131
2.923287
2.919444
2.919444
2.9156
2.902788
2.907913
2.904069
2.901507
2.896382
2.895101
2.895101
2.89382
2.857947
2.838729
2.887414
2.889977
2.898945
2.900226
2.913038
2.911757
2.922006
2.864353
2.909194
2.928412
2.922006
2.878446
2.895101
2.841292
2.840011
2.85026
2.807981
2.790045
2.820793
2.814387
2.807981
2.787482
2.823355
2.834886
2.843854
2.883571
2.709331
2.65424
2.724705
2.859228
2.866915
2.868196
2.859228
2.883571
2.957879
2.997595
3.051405
3.073185
3.087278
3.094965
3.069341
3.052686
3.032187
3.015532
3.016813
3.000158
2.927131
2.89382
2.934818
2.913038
2.892539
2.879727
2.869478
2.869478
2.868196
2.859228
2.889977
2.900226
2.896382
2.898945
2.904069
2.901507
2.892539
2.860509
2.833605
2.815668
2.779795
2.700362
2.606836
2.591462
2.764421
2.582494
2.509467
2.508186
2.514592
2.532528
2.538934
2.536372
2.537653
2.56712
2.581213
2.670895
2.668333
2.668333
2.672176
2.679863
2.683707
2.682426
2.684988
2.705487
2.679863
2.672176
2.663208
2.658083
2.652959
2.658083
2.655521
2.656802
2.646553
2.656802
2.658083
2.651678
2.682426
2.822074
2.852822
2.868196
2.869478
2.888695
2.892539
2.897664
2.897664
2.897664
2.883571
2.889977
2.608118
2.811825
2.831042
2.837448
2.878446
2.930974
2.87204
2.832324
2.820793
2.815668
2.913038
2.933537
2.950192
2.970691
2.982221
2.993752
2.988627
2.984784
2.987346
3.001439
3.018094
3.037312
3.03475
3.075747
3.061654
3.04628
2.913038
2.54534
2.595306
2.977097
3.033468
3.071904
3.07831
3.074466
3.082153
3.084715
3.061654
3.096246
3.124432
3.120588
3.106495
3.094965
3.041155
3.027062
3.020657
3.023219
3.014251
3.0245
3.005282
2.868196
2.624773
2.918162
2.950192
2.961722
2.956598
2.963004
2.961722
2.951473
2.966847
2.966847
2.989908
2.988627
3.006564
3.020657
3.060373
3.120588
3.156461
3.182085
3.007845
3.006564
3.005282
3.030906
3.029625
3.033468
3.03475
3.041155
3.050124
3.061654
3.079591
3.114182
3.109058
2.988627
2.891258
2.883571
2.904069
2.845135
2.823355
2.820793
2.793888
2.829761
2.909194
3.033468
3.08984
3.118026
3.135962
3.151337
3.18721
3.23077
3.308921
3.369137
3.160617
3.147806
3.145243
3.133713
2.850573
2.724705
2.751609
2.8067
2.841292
2.823355
2.834886
2.879727
2.843854
2.845135
2.950192
3.082153
3.060373
3.050124
3.052686
3.048842
3.135962
3.132119
3.085997
3.085997
3.178554
3.182397
3.182397
3.190084
3.167023
3.16318
3.15293
3.147806
3.147806
3.179835
3.019688
2.987659
3.012001
2.97869
3.158055
3.0325
3.192647
3.225957
3.260549
3.292578
3.281048
3.290016
3.320765
3.33742
3.339982
3.300266
2.817262
2.664489
2.63246
2.973253
3.193615
3.342232
3.343513
3.361449
3.371699
3.210271
3.306359
3.308921
3.314046
3.338388
3.321733
3.312765
3.30764
3.314046
3.189772
3.196178
3.170554
3.214114
3.212833
3.238456
3.159024
3.015532
3.07831
3.105214
2.873321
3.016813
3.116745
3.183366
3.141087
3.109058
3.216676
3.270486
3.296109
3.32942
3.390917
3.447289
3.524472
3.589812
3.644902
3.656433
3.737147
3.684619
3.738428
3.764052
3.760208
3.756365
3.739709
3.710242
3.687181
3.629528
3.591093
3.557782
3.542408
3.515503
3.482193
3.455288
3.438633
3.439914
3.439914
3.434789
3.411728
3.418134
3.41429
3.391229
3.378417
3.39251
3.238769
3.201615
3.13115
3.13115
3.033781
3.073497
3.182397
3.246456
3.454007
3.454007
3.482193
3.452726
3.393791
3.404041
3.429664
3.409166
3.38098
3.373293
3.368168
3.34895
3.34895
3.342545
3.388667
3.44632
3.497567
3.562907
3.630809
3.67565
3.683337
3.666682
3.665401
3.65387
3.666682
3.667963
3.31564
2.819824
2.341633
2.996376
3.0245
3.465225
3.55522
3.616716
3.679494
3.671807
