1532647740.000000
4.000000
0.000000
0.832765
1.102079
1.054744
1.059869
1.063713
1.067556
1.072681
1.072681
1.076524
1.077806
1.077806
1.077806
1.080368
1.081649
1.082930
1.080368
1.080368
1.085493
1.082930
1.082930
1.082930
1.082930
1.084211
1.085493
1.085493
1.082930
1.081649
1.080368
1.079087
1.079087
1.082930
1.082930
1.081649
1.080368
1.080368
1.081649
1.081649
1.085493
1.088055
1.093180
1.090617
1.093180
1.088055
1.091899
1.091899
1.091899
1.094461
1.090617
1.090617
1.090617
1.089336
1.088055
1.088055
1.084211
1.086774
1.084211
1.085493
1.086774
1.090617
1.093180
1.090617
1.090617
1.079087
1.079087
1.075243
1.077806
1.076524
1.076524
1.077806
1.075243
1.073962
1.068837
1.066275
1.066275
1.066275
1.062431
1.061150
1.066275
1.062431
1.062431
1.062431
1.052182
1.061150
1.056026
1.054744
1.054744
1.056026
1.050901
1.058588
1.064994
1.084211
1.084211
1.084211
1.082930
1.082930
1.077806
1.079087
1.079087
1.082930
1.072681
1.045776
1.044495
1.023996
1.021434
1.011184
1.004779
1.002216
1.000935
1.002216
1.006060
1.009903
1.022715
1.025277
1.031683
1.038089
1.008622
0.981717
0.982999
0.988123
0.995810
0.991967
0.998373
0.999654
1.007341
1.015028
1.020153
1.021434
1.017590
0.999654
1.000935
1.011184
1.011184
1.021434
1.015028
1.015028
1.013747
1.023996
1.034246
1.036808
1.034246
1.032964
1.032964
1.030402
1.032964
1.029121
1.034246
1.039370
1.039370
1.039370
1.040652
1.035527
1.036808
1.036808
1.041933
1.041933
1.045776
1.041933
1.041933
1.041933
1.040652
1.040652
1.035527
1.050901
1.053463
1.058588
1.064994
1.073962
1.063713
1.054744
1.059869
1.066275
1.059869
1.057307
1.056026
1.054744
1.048339
1.053463
1.050901
1.045776
1.047057
1.043214
1.044495
1.039370
1.041933
1.040652
1.039370
1.035527
1.036808
1.045776
1.050901
1.043214
1.047057
1.054744
1.059869
1.054744
1.064994
1.085493
1.073962
1.082930
1.097023
1.102148
1.173894
1.235390
1.209767
1.207204
1.207204
1.181581
1.152114
1.143146
1.153395
1.187987
1.198236
1.185424
1.182862
1.180300
1.176456
1.177737
1.175175
1.172613
1.168769
1.172613
1.167488
1.168769
1.168769
1.171332
1.173894
1.172613
1.171332
1.172613
1.170050
1.172613
1.167488
1.171332
1.170050
1.170050
1.170050
1.170050
1.173894
1.177737
1.171332
1.170050
1.162363
1.167488
1.161082
1.168769
1.161082
1.159801
1.159801
1.164926
1.163644
1.172613
1.177737
1.185424
1.191830
1.196955
1.199517
1.203361
1.213610
1.214892
1.226422
1.221297
1.218735
1.216173
1.212329
1.213610
1.209767
1.211048
1.204642
1.205923
1.200799
1.199517
1.196955
1.195674
1.194393
1.196955
1.196955
1.198236
1.195674
1.202080
1.193112
1.191830
1.191830
1.191830
1.191830
1.190549
1.187987
1.185424
1.185424
1.185424
1.182862
1.181581
1.182862
1.180300
1.177737
1.176456
1.177737
1.176456
1.173894
1.171332
1.170050
1.167488
1.167488
1.166207
1.166207
1.159801
1.158520
1.163644
1.163644
1.166207
1.162363
1.162363
1.159801
1.157239
1.157239
1.153395
1.153395
1.154676
1.153395
1.154676
1.155957
1.161082
1.148270
1.158520
1.157239
1.157239
1.155957
1.154676
1.154676
1.150833
1.150833
1.146989
1.148270
1.159801
1.164926
1.166207
1.164926
1.154676
1.152114
1.146989
1.148270
1.154676
1.157239
1.158520
1.158520
1.164926
1.167488
1.162363
1.161082
1.157239
1.157239
1.162363
1.155957
1.158520
1.153395
1.155957
1.153395
1.155957
1.154676
1.152114
1.153395
1.157239
1.149552
1.149552
1.149552
1.148270
1.158520
1.158520
1.168769
1.186706
1.222579
1.237953
1.253327
1.261014
1.269982
1.271263
1.268701
1.276388
1.278950
1.276388
1.275107
1.271263
1.227703
1.221297
1.194393
1.176456
1.175175
1.172613
1.175175
1.213610
1.196955
1.184143
1.180300
1.189268
1.184143
1.179019
1.179019
1.181581
1.194393
1.187987
1.184143
1.181581
1.171332
1.181581
1.179019
1.180300
1.185424
1.176456
1.176456
1.176456
1.175175
1.171332
1.171332
1.150833
1.146989
1.157239
1.170050
1.209767
1.185424
1.220016
1.175175
1.155957
1.211048
1.190549
1.146989
1.161082
1.205923
1.208486
1.211048
1.207204
1.199517
1.187987
1.177737
1.179019
1.186706
1.186706
1.187987
1.187987
1.187987
1.176456
1.182862
1.179019
1.194393
1.196955
1.189268
1.187987
1.193112
1.179019
1.172613
1.173894
1.168769
1.175175
1.175175
1.164926
1.171332
1.163644
1.166207
1.154676
1.181581
1.187987
1.149552
1.148270
1.148270
1.145708
1.149552
1.170050
1.177737
1.161082
1.171332
1.184143
1.186706
1.190549
1.191830
1.157239
1.155957
1.155957
1.157239
1.154676
1.154676
1.175175
1.199517
1.205923
1.199517
1.203361
1.187987
1.155957
1.153395
1.153395
1.152114
1.152114
1.153395
1.153395
1.148270
1.148270
1.146989
1.146989
1.146989
1.145708
1.146989
1.150833
1.144427
1.149552
1.145708
1.144427
1.141864
1.148270
1.146989
1.158520
1.162363
1.177737
1.180300
1.194393
1.220016
1.228984
1.230266
1.230266
1.228984
1.221297
1.194393
1.194393
1.193112
1.191830
1.191830
1.190549
1.189268
1.189268
1.187987
1.186706
1.190549
1.187987
1.182862
1.182862
1.184143
1.189268
1.182862
1.187987
1.176456
1.177737
1.184143
1.175175
1.177737
1.179019
1.176456
1.173894
1.175175
1.171332
1.207204
1.204642
1.200799
1.196955
1.195674
1.193112
1.193112
1.200799
1.213610
1.222579
1.214892
1.221297
1.214892
1.220016
1.213610
1.212329
1.211048
1.237953
1.239234
1.234109
1.221297
1.212329
1.209767
1.213610
1.211048
1.216173
1.217454
1.223860
1.221297
1.226422
1.226422
1.231547
1.232828
1.228984
1.231547
1.249483
1.262295
1.254608
1.252046
1.250764
1.221297
1.216173
1.205923
1.204642
1.212329
1.221297
1.222579
1.223860
1.223860
1.222579
1.228984
1.227703
1.230266
1.255889
1.266139
1.264857
1.254608
1.235390
1.228984
1.227703
1.230266
1.228984
1.230266
1.230266
1.231547
1.232828
1.240515
1.234109
1.236672
1.240515
1.241796
1.241796
1.241796
1.244359
1.241796
1.240515
1.239234
1.235390
1.234109
1.231547
1.230266
1.232828
1.228984
1.227703
1.225141
1.223860
1.221297
1.221297
1.221297
1.218735
1.220016
1.222579
1.218735
1.217454
1.223860
1.221297
1.209767
1.220016
1.221297
1.216173
1.216173
1.214892
1.214892
1.216173
1.213610
1.220016
1.216173
1.218735
1.218735
1.216173
1.218735
1.221297
1.223860
1.226422
1.222579
1.225141
1.223860
1.225141
1.223860
1.223860
1.226422
1.222579
1.221297
1.222579
1.225141
1.222579
1.223860
1.226422
1.226422
1.239234
1.255889
1.244359
1.246921
1.253327
1.255889
1.249483
1.249483
1.253327
1.255889
1.259733
1.262295
1.264857
1.266139
1.271263
1.268701
1.268701
1.271263
1.266139
1.262295
1.255889
1.243077
1.223860
1.241796
1.250764
1.255889
1.264857
1.266139
1.263576
1.263576
1.254608
1.196955
1.191830
1.202080
1.212329
1.218735
1.223860
1.226422
1.226422
1.226422
1.232828
1.226422
1.227703
1.230266
1.226422
1.230266
1.227703
1.221297
1.227703
1.230266
1.235390
1.235390
1.235390
1.239234
1.240515
1.239234
1.237953
1.244359
1.248202
1.262295
1.275107
1.289200
1.296887
1.304574
1.286637
1.268701
1.216173
1.181581
1.225141
1.255889
1.307136
1.317386
1.305855
1.319948
1.362227
1.380163
1.375039
1.367352
1.364789
1.368633
1.339166
1.326354
1.327635
1.328916
1.328916
1.334041
1.346853
1.345572
1.354540
1.351977
1.359665
1.373757
1.376320
1.384007
1.382726
1.396819
1.387850
1.391694
1.384007
1.381445
1.386569
1.398100
1.412193
1.410912
1.425005
1.427567
1.431410
1.436535
1.431410
1.439098
1.437816
1.436535
1.432692
1.428848
1.425005
1.422442
1.423723
1.422442
1.427567
1.435254
1.444222
1.439098
1.440379
1.441660
1.446784
1.440379
1.444222
1.431410
1.441660
1.441660
1.444222
1.442941
1.440379
1.439098
1.435254
1.445503
1.446784
1.459596
1.454571
1.457133
1.463539
1.467382
1.472507
1.469945
1.472507
1.478913
1.480194
1.478913
1.477632
1.476351
1.478913
1.477632
1.477632
1.477632
1.485319
1.478913
1.490444
1.489162
1.499412
1.495568
1.501974
1.494287
1.490444
1.514786
1.522473
1.499412
1.491725
1.496850
1.500693
1.508380
1.519911
1.530160
1.540410
1.549378
1.576283
1.576283
1.581407
1.580126
1.558346
1.562190
1.562190
1.564752
1.567314
1.566033
1.567314
1.567314
1.569877
1.572439
1.573720
1.575001
1.578845
1.571158
1.576283
1.577564
1.580126
1.585251
1.589094
1.592938
1.594219
1.594219
1.594219
1.601906
1.599344
1.601906
1.610874
1.630092
1.648028
1.658278
1.678777
1.683901
1.686464
1.692870
1.696713
1.709525
1.713368
1.708244
1.706962
1.713368
1.738992
1.773584
1.803051
1.837643
1.861985
1.885046
1.926044
1.941418
1.936492
1.946742
1.955710
1.964678
1.973647
1.974928
1.983896
1.983896
1.978771
1.974928
1.964678
1.955710
1.950585
1.969803
1.976209
1.968522
1.976209
1.983896
1.985177
1.982615
1.983896
1.994145
1.990302
1.989021
1.987740
1.989021
1.991583
1.991583
1.992864
1.992864
2.001832
2.003114
2.001832
2.004395
2.001832
2.009520
2.012082
2.023612
2.044111
2.053080
2.063329
2.073578
2.083828
2.083828
2.086390
2.087671
2.092796
2.099202
2.106889
2.110733
2.113295
2.119701
2.127388
2.126107
2.129950
2.141481
2.138918
2.144043
2.142762
2.153011
2.163261
2.167104
2.191447
2.202977
2.209383
2.208102
2.206821
2.213227
2.214508
2.218351
2.222195
2.218351
2.224757
2.213227
2.208102
2.219633
2.229882
2.237569
2.243975
2.259349
2.261911
2.270880
2.278567
2.278567
2.282410
2.290097
2.292660
2.291378
2.293941
2.292660
2.290097
2.292660
2.296503
2.297784
2.301628
2.311877
2.318283
2.323408
2.327251
2.332376
2.337501
2.340063
2.337501
2.345188
2.337501
2.329814
2.318283
2.309315
2.315721
2.327251
2.334939
2.345188
2.355437
2.366968
2.374655
2.373374
2.372092
2.366968
2.370811
2.369530
2.374655
2.373374
2.377217
2.379780
2.381061
2.392591
2.401560
2.414371
2.420777
2.431027
2.431377
2.433939
2.441627
2.436502
2.451876
2.445470
2.448032
2.455719
2.463407
2.467250
2.473656
2.472375
2.492874
2.492874
2.491592
2.494155
2.497998
2.497998
2.499279
2.501842
2.504404
2.501842
2.509529
2.522341
2.537715
2.542840
2.547964
2.555651
2.559495
2.553089
2.546683
2.538996
2.549245
2.542840
2.538996
2.540277
2.540277
2.547964
2.550527
2.558214
2.559495
2.559495
2.568463
2.585118
2.586400
2.592805
2.601774
2.512091
2.419847
2.403191
2.416003
2.428815
2.431377
2.437783
2.442908
2.444189
2.457001
2.468531
2.476218
2.469812
2.487749
2.513372
2.538996
2.546683
2.556932
2.551808
2.555651
2.565901
2.577431
2.595368
2.605617
2.622272
2.635084
2.637647
2.642771
2.647896
2.658145
2.691456
2.709393
2.728610
2.738860
2.750390
2.749109
2.760640
2.765764
2.765764
2.765764
2.755515
2.745265
2.737578
2.733735
2.719642
2.729891
2.724766
2.714517
2.695300
2.718361
2.735016
2.746547
2.755515
2.754234
2.749109
2.749109
2.754234
2.760640
2.774733
2.777295
2.781138
2.781138
2.783701
2.778576
2.782420
2.782420
2.787544
2.795231
2.806762
2.813168
2.820855
2.806762
2.817011
2.810606
2.800356
2.800356
2.805481
2.802918
2.786263
2.783701
2.782420
2.784982
2.784982
2.786263
2.795231
2.792669
2.784982
2.791388
2.795231
2.795231
2.795231
2.797794
2.797794
2.795231
2.797794
2.799075
2.799075
2.802918
2.778576
2.778576
2.790107
2.797794
2.808043
2.700424
2.701705
2.713236
2.717080
2.715798
2.718361
2.717080
2.713236
2.761921
2.791388
2.800356
2.800356
2.806762
2.810606
2.819574
2.824698
2.825979
2.829823
2.834948
2.840073
2.851603
2.834948
2.847759
2.852884
2.852884
2.847759
2.849041
2.856728
2.858009
2.866977
2.884914
2.913100
2.946410
2.984784
3.005282
3.006564
3.015532
3.016813
3.027062
3.039874
3.038593
3.043718
3.046280
3.042437
3.048842
3.042437
3.039874
3.037312
3.032187
3.030906
3.029625
3.032187
3.034750
3.036031
3.037312
3.036031
3.036031
3.042437
3.014251
3.018094
3.023219
3.036031
3.050124
3.053967
3.053967
3.059092
3.061654
3.064217
3.068060
3.070622
3.071904
3.074466
3.070622
3.064217
3.048842
3.044999
3.032187
3.036031
3.037312
3.046280
3.064217
3.073185
3.080872
3.102652
3.119307
3.134681
3.152618
3.178241
3.194896
3.207708
3.208990
3.205146
3.182085
3.189772
3.196178
3.137244
2.986065
2.968128
3.023219
3.087278
3.124432
3.129557
3.153899
3.162867
3.174398
3.179523
3.087278
3.030906
3.023219
3.043718
3.111620
3.132119
3.141087
3.153899
3.170554
3.184647
3.207708
3.228207
3.238456
3.249987
3.256393
3.256393
3.264080
3.265361
3.274329
3.284579
3.319171
3.333264
3.364012
3.385792
3.401166
3.417821
3.419102
3.426790
3.425508
3.420384
3.417821
3.413978
3.413978
3.408853
3.408853
3.407572
3.422946
3.435758
3.451132
3.466819
3.474506
3.475787
3.480911
3.487317
3.482193
3.484755
3.500129
3.520628
3.541127
3.562907
3.557782
3.587249
3.601342
3.615435
3.626966
3.638496
3.660276
3.696149
3.699993
3.689743
3.684619
3.676932
3.660276
3.628247
3.616716
3.601342
3.580843
3.548814
3.532159
3.561626
3.562907
3.553939
3.547533
3.547533
3.537283
3.524472
3.528315
3.520628
3.495004
3.486036
3.496286
3.509097
3.507816
3.525753
3.541127
3.548814
3.536002
3.556501
3.569313
3.575719
3.568032
3.578281
3.573156
3.582124
3.597499
3.614154
3.625684
3.619279
3.454007
3.393791
3.419415
3.438633
3.429664
3.438633
3.439914
3.446320
3.455288
3.454007
3.459131
3.461694
3.456569
3.455288
3.459131
3.464256
3.473224
3.473224
3.475787
3.486036
3.503973
3.519347
3.524472
3.532159
3.527034
3.536002
3.532159
3.536002
3.547533
3.553939
3.559063
3.562907
3.573156
3.575719
3.580843
3.587249
3.588530
3.596217
3.606467
3.626966
3.620560
3.621841
3.626966
3.625684
3.628247
3.632090
3.630809
3.634653
3.630809
3.619279
3.487317
3.350231
3.331014
3.322046
3.305390
3.279767
3.259268
3.250300
3.275923
3.302828
3.328451
3.354075
3.409166
3.500129
3.560344
3.514222
3.447601
3.407884
3.502692
3.637215
3.710242
3.711523
3.774301
3.747396
3.820423
3.826829
3.805049
3.790956
3.761489
3.744834
3.743553
3.738428
3.753802
3.767895
3.792238
3.830673
3.860140
3.878076
3.880639
3.885763
3.890888
3.890888
3.893450
3.894732
3.894732
3.899856
3.885763
3.879358
3.764052
3.717929
3.500129
3.719210
3.751240
3.796081
3.826829
3.884482
3.937011
3.970665
3.983477
3.982196
3.975790
3.966822
3.961697
3.966822
3.961697
3.959135
3.923262
3.923262
3.916856
3.914293
3.915575
3.919418
3.916856
3.913012
3.920699
3.930949
3.929667
3.939917
3.939917
3.937355
3.932230
3.929667
3.923262
3.921980
3.921980
3.925824
3.936073
3.934792
3.952729
3.954010
3.959135
3.960416
3.959135
3.965540
3.973228
3.978352
3.991164
3.998851
4.009100
4.038568
4.042411
4.051379
4.044973
4.043692
4.037286
4.036005
4.046255
3.892513
3.942479
3.938636
4.024475
4.060348
4.083409
4.119282
4.084690
4.043692
4.052660
4.047536
4.032162
4.002695
3.965540
3.951447
4.006538
4.092377
4.135937
4.178216
4.214089
4.211526
4.221776
4.224338
4.203839
4.128250
4.135937
4.139781
4.138499
4.137218
4.152592
4.151311
4.141062
4.126969
4.119282
4.106470
4.100064
4.124406
4.128250
4.144905
4.156436
4.176935
4.191028
4.194871
4.199996
4.205121
4.210245
4.216651
4.221776
4.239712
4.249962
4.262774
4.276866
4.279429
4.276866
4.279429
4.280710
4.284554
4.288397
4.297365
4.299928
4.292241
4.299928
4.302490
4.308896
4.317864
4.340925
4.366549
4.406265
4.420358
4.430608
4.432112
4.432112
4.429550
4.430831
4.434674
4.426987
4.418019
4.419300
4.462860
4.476953
4.507701
4.506420
4.503858
4.492327
4.511545
4.532044
4.537169
4.542293
4.541012
4.537169
4.530763
4.525638
4.523076
4.505139
4.492327
4.484640
4.485921
4.483359
4.482078
4.484640
4.488484
4.491046
4.485921
4.484640
4.487203
4.494890
4.503858
4.503858
4.506420
4.517951
4.528200
4.526919
4.530763
4.530763
4.534606
4.539731
4.547418
4.555105
4.557667
4.557667
4.567917
4.566636
4.565354
4.569198
4.571760
4.573041
4.575604
4.593540
4.610196
4.628132
4.643506
4.647350
4.647350
4.657599
4.646069
4.628132
4.633257
4.633257
4.629413
4.628132
4.608914
4.620445
4.611477
4.612758
4.610196
4.610196
4.608914
4.607633
4.608914
4.610196
4.611477
4.615320
4.617883
4.620445
4.620445
4.621726
4.585853
4.542293
4.512826
4.510264
4.438518
4.396239
4.351398
4.377021
4.444924
4.465423
4.450048
4.573041
4.560230
4.434674
4.602509
4.569198
4.474391
4.356523
4.579447
4.605071
4.566636
4.541012
4.562792
4.574323
4.590978
4.588416
4.594821
4.603790
4.606352
4.642225
4.722939
4.754969
4.783154
4.836964
4.858744
4.860025
4.863869
4.847213
4.833120
4.813903
4.811340
4.795966
4.795966
4.786998
4.785717
4.786998
4.784436
4.783154
4.798529
4.799810
4.806216
4.797247
4.824152
4.845932
4.870275
4.885649
4.890773
4.903585
4.903585
4.904866
4.898460
4.898460
4.901023
4.904866
4.892055
4.897179
4.898460
4.902304
4.907429
4.902304
4.890773
4.884367
4.879243
4.877962
4.871556
4.876680
4.877962
4.886930
4.871556
4.893336
4.903585
4.913835
4.925365
4.935615
4.954330
4.958174
4.965861
4.968423
4.974829
4.977391
4.974829
4.982516
4.979954
4.970985
4.972267
4.974829
5.036325
5.100384
5.158037
5.195191
5.236189
5.242595
5.237470
5.224658
5.214409
5.197754
5.187504
5.182380
5.169568
5.165724
5.154194
5.142663
5.145226
5.146507
5.147788
5.142663
5.146507
5.146507
5.155475
5.160600
5.165724
5.170849
5.169568
5.175974
5.163162
5.161881
5.158037
5.159318
5.160600
5.170849
5.175974
5.184942
5.195191
5.141382
5.106790
5.113196
5.152913
5.204160
5.219534
5.231064
5.238751
5.242595
5.259250
5.270781
5.273343
5.291280
5.287436
5.289999
5.293842
5.292561
5.293842
5.292561
5.297686
5.273343
5.282311
5.298967
5.313060
5.324590
5.333559
5.337402
5.329715
5.329715
5.343808
5.346370
5.354057
5.369431
5.389930
5.414273
5.434772
5.460695
5.468382
5.469663
5.465820
5.461976
5.461976
5.450446
5.450446
5.449164
5.442759
5.445321
5.446602
5.444040
5.446602
5.446602
5.458133
5.461976
5.468382
5.468382
5.468382
5.470944
5.474788
5.483756
5.501693
5.527316
5.536284
5.545253
5.546534
5.547815
5.545253
5.543972
5.543972
5.542690
5.542690
5.546534
5.543972
5.555502
5.563189
5.574720
5.582407
5.587532
5.577282
5.576001
5.578563
5.581126
5.592656
5.588813
5.587532
5.600343
5.597781
5.602906
5.597781
5.614436
5.623405
5.624686
5.625967
5.657996
5.670808
5.682339
5.696432
5.692588
5.704119
5.707962
5.707962
5.718212
5.713087
5.713087
5.719493
5.722055
5.719493
5.719493
5.714368
5.714368
5.716930
5.727180
5.736148
5.741273
5.752803
5.750241
5.760490
5.768178
5.775865
5.782270
5.784833
5.765615
5.782270
5.701556
5.300548
5.021252
