1532553876.000000
4.000000
0.000000
0.303657
0.374126
0.380532
0.380532
0.377970
0.377970
0.376689
0.372845
0.372845
0.370282
0.369001
0.369001
0.367720
0.365157
0.365157
0.367720
0.371564
0.372845
0.367720
0.367720
0.370282
0.370282
0.367720
0.366439
0.367720
0.365157
0.365157
0.365157
0.366439
0.363876
0.363876
0.363876
0.363876
0.362595
0.366439
0.365157
0.365157
0.363876
0.366439
0.365157
0.363876
0.362595
0.361314
0.362595
0.362595
0.362595
0.362595
0.356189
0.357470
0.362595
0.357470
0.356189
0.357470
0.356189
0.357470
0.354907
0.353626
0.352345
0.351064
0.352345
0.352345
0.352345
0.349782
0.351064
0.352345
0.351064
0.351064
0.349782
0.351064
0.351064
0.351064
0.349782
0.347220
0.347220
0.345939
0.347220
0.347220
0.345939
0.345939
0.348501
0.347220
0.342095
0.347220
0.345939
0.347220
0.347220
0.348501
0.348501
0.345939
0.347220
0.349782
0.347220
0.319032
0.312626
0.321595
0.325438
0.330564
0.328001
0.325438
0.321595
0.307501
0.301095
0.298532
0.297251
0.295970
0.295970
0.298532
0.297251
0.294688
0.297251
0.295970
0.301095
0.298532
0.297251
0.295970
0.297251
0.297251
0.297251
0.297251
0.298532
0.297251
0.299813
0.306220
0.354907
0.356189
0.356189
0.356189
0.360032
0.354907
0.353626
0.354907
0.354907
0.354907
0.357470
0.356189
0.347220
0.344657
0.345939
0.344657
0.347220
0.330564
0.324157
0.328001
0.329282
0.331845
0.329282
0.329282
0.331845
0.333126
0.331845
0.330564
0.331845
0.363876
0.357470
0.356189
0.369001
0.369001
0.357470
0.354907
0.354907
0.353626
0.345939
0.352345
0.354907
0.354907
0.354907
0.361314
0.356189
0.360032
0.353626
0.363876
0.358751
0.358751
0.357470
0.357470
0.357470
0.356189
0.356189
0.356189
0.354907
0.354907
0.354907
0.353626
0.370282
0.353626
0.345939
0.370282
0.348501
0.331845
0.317751
0.315188
0.329282
0.333126
0.330564
0.329282
0.329282
0.330564
0.331845
0.330564
0.335689
0.353626
0.352345
0.379251
0.377970
0.376689
0.374126
0.375407
0.376689
0.386939
0.385657
0.402314
0.406157
0.365157
0.361314
0.408720
0.453564
0.622689
0.705971
0.587081
0.480737
0.442299
0.359018
0.332112
0.325705
0.323143
0.307768
0.307768
0.294955
0.288549
0.285987
0.282143
0.279580
0.282143
0.280861
0.279580
0.274455
0.274455
0.274455
0.271893
0.274455
0.277018
0.265486
0.271893
0.270611
0.273174
0.266768
0.269330
0.268049
0.266768
0.266768
0.266768
0.268049
0.266768
0.260361
0.253955
0.251393
0.262924
0.269330
0.266768
0.260361
0.262924
0.256518
0.261643
0.265486
0.269330
0.268049
0.271893
0.274455
0.278299
0.274455
0.277018
0.273174
0.274455
0.275736
0.275736
0.273174
0.274455
0.271893
0.274455
0.275736
0.275736
0.274455
0.273174
0.273174
0.273174
0.274455
0.273174
0.271893
0.270611
0.269330
0.268049
0.269330
0.268049
0.269330
0.265486
0.262924
0.265486
0.264205
0.266768
0.264205
0.264205
0.264205
0.261643
0.260361
0.261643
0.260361
0.260361
0.266768
0.261643
0.262924
0.266768
0.265486
0.264205
0.262924
0.261643
0.261643
0.262924
0.260361
0.262924
0.266768
0.262924
0.260361
0.262924
0.261643
0.262924
0.262924
0.262924
0.260361
0.262924
0.266768
0.264205
0.264205
0.268049
0.264205
0.264205
0.262924
0.260361
0.259080
0.260361
0.261643
0.261643
0.261643
0.260361
0.261643
0.262924
0.259080
0.269330
0.270611
0.259080
0.279580
0.278299
0.274455
0.274455
0.278299
0.264205
0.259080
0.266768
0.271893
0.277018
0.257799
0.257799
0.256518
0.257799
0.255236
0.257799
0.257799
0.257799
0.256518
0.256518
0.257799
0.256518
0.253955
0.255236
0.253955
0.256518
0.253955
0.253955
0.253955
0.255236
0.253955
0.250111
0.250111
0.251393
0.250111
0.251393
0.251393
0.251393
0.252674
0.248830
0.248830
0.252674
0.250111
0.247549
0.247549
0.246268
0.246268
0.250111
0.248830
0.248830
0.250111
0.248830
0.243705
0.248830
0.246268
0.247549
0.248830
0.250111
0.253955
0.247549
0.247549
0.247549
0.248830
0.250111
0.248830
0.251393
0.247549
0.248830
0.250111
0.246268
0.248830
0.260361
0.256518
0.241143
0.242424
0.256518
0.265486
0.265486
0.289830
0.283424
0.298799
0.316737
0.315455
0.320580
0.310330
0.324424
0.347487
0.359018
0.333393
0.337237
0.334674
0.329549
0.326987
0.326987
0.324424
0.319299
0.316737
0.316737
0.311612
0.311612
0.312893
0.307768
0.306487
0.306487
0.307768
0.303924
0.302643
0.302643
0.301362
0.298799
0.303924
0.301362
0.309049
0.305205
0.298799
0.309049
0.307768
0.303924
0.302643
0.301362
0.300080
0.309049
0.307768
0.309049
0.309049
0.312893
0.307768
0.306487
0.300080
0.300080
0.297518
0.305205
0.298799
0.309049
0.306487
0.303924
0.301362
0.315455
0.316737
0.301362
0.298799
0.298799
0.296237
0.293674
0.292393
0.293674
0.296237
0.300080
0.297518
0.297518
0.298799
0.296237
0.298799
0.297518
0.300080
0.301362
0.302643
0.301362
0.310330
0.302643
0.297518
0.300080
0.293674
0.292393
0.289830
0.292393
0.297518
0.305205
0.307768
0.316737
0.312893
0.310330
0.310330
0.316737
0.311612
0.307768
0.310330
0.305205
0.303924
0.303924
0.302643
0.305205
0.302643
0.302643
0.302643
0.303924
0.302643
0.307768
0.302643
0.303924
0.305205
0.300080
0.300080
0.297518
0.298799
0.300080
0.297518
0.297518
0.294955
0.301362
0.301362
0.298799
0.298799
0.297518
0.298799
0.297518
0.297518
0.297518
0.298799
0.300080
0.297518
0.296237
0.291112
0.297518
0.298799
0.300080
0.297518
0.297518
0.297518
0.297518
0.298799
0.297518
0.297518
0.296237
0.297518
0.298799
0.294955
0.297518
0.296237
0.297518
0.297518
0.298799
0.296237
0.294955
0.296237
0.298799
0.298799
0.298799
0.302643
0.298799
0.301362
0.297518
0.298799
0.301362
0.300080
0.298799
0.298799
0.300080
0.297518
0.297518
0.298799
0.296237
0.301362
0.300080
0.298799
0.302643
0.298799
0.298799
0.298799
0.298799
0.300080
0.301362
0.298799
0.298799
0.300080
0.301362
0.301362
0.300080
0.300080
0.298799
0.298799
0.300080
0.300080
0.296237
0.298799
0.296237
0.298799
0.298799
0.298799
0.298799
0.298799
0.301362
0.298799
0.298799
0.297518
0.298799
0.298799
0.296237
0.300080
0.297518
0.298799
0.298799
0.291112
0.300080
0.297518
0.296237
0.300080
0.294955
0.294955
0.298799
0.297518
0.296237
0.294955
0.288549
0.307768
0.315455
0.307768
0.303924
0.305205
0.303924
0.302643
0.306487
0.306487
0.314174
0.309049
0.305205
0.306487
0.305205
0.305205
0.305205
0.306487
0.306487
0.306487
0.310330
0.307768
0.306487
0.307768
0.306487
0.307768
0.307768
0.311612
0.306487
0.310330
0.307768
0.306487
0.307768
0.306487
0.303924
0.303924
0.302643
0.301362
0.302643
0.302643
0.300080
0.301362
0.300080
0.302643
0.300080
0.300080
0.301362
0.297518
0.301362
0.303924
0.297518
0.297518
0.298799
0.294955
0.298799
0.300080
0.294955
0.298799
0.297518
0.297518
0.296237
0.296237
0.297518
0.296237
0.296237
0.301362
0.300080
0.301362
0.302643
0.294955
0.305205
0.306487
0.305205
0.306487
0.306487
0.306487
0.305205
0.306487
0.307768
0.307768
0.309049
0.309049
0.314174
0.311612
0.314174
0.312893
0.312893
0.319299
0.311612
0.314174
0.314174
0.314174
0.314174
0.316737
0.316737
0.318018
0.319299
0.318018
0.318018
0.315455
0.314174
0.318018
0.315455
0.311612
0.321862
0.312893
0.314174
0.312893
0.312893
0.314174
0.310330
0.310330
0.311612
0.320580
0.319299
0.326987
0.328268
0.333393
0.332112
0.332112
0.332112
0.333393
0.332112
0.329549
0.329549
0.328268
0.325705
0.325705
0.323143
0.320580
0.323143
0.319299
0.310330
0.289830
0.288549
0.289830
0.280861
0.284705
0.293674
0.285987
0.285987
0.287268
0.287268
0.285987
0.288549
0.289830
0.285987
0.284705
0.282143
0.274455
0.280861
0.282143
0.278299
0.278299
0.277018
0.277018
0.277018
0.277018
0.278299
0.271893
0.274455
0.278299
0.271893
0.273174
0.270611
0.269330
0.269330
0.268049
0.270611
0.269330
0.270611
0.268049
0.266768
0.269330
0.265486
0.268049
0.268049
0.266768
0.265486
0.266768
0.264205
0.268049
0.265486
0.274455
0.288549
0.300080
0.307768
0.303924
0.305205
0.302643
0.301362
0.303924
0.302643
0.303924
0.306487
0.311612
0.309049
0.316737
0.315455
0.315455
0.318018
0.316737
0.314174
0.316737
0.315455
0.316737
0.315455
0.314174
0.321862
0.314174
0.314174
0.314174
0.315455
0.312893
0.314174
0.316737
0.311612
0.315455
0.314174
0.315455
0.312893
0.312893
0.314174
0.312893
0.316737
0.312893
0.316737
0.312893
0.314174
0.305205
0.314174
0.311612
0.310330
0.311612
0.305205
0.294955
0.297518
0.315455
0.323143
0.323143
0.332112
0.338518
0.344924
0.350049
0.359018
0.359018
0.359018
0.360299
0.359018
0.356455
0.356455
0.351330
0.351330
0.356455
0.348768
0.352612
0.348768
0.350049
0.347487
0.347487
0.347487
0.344924
0.344924
0.346205
0.342362
0.344924
0.343643
0.341080
0.341080
0.342362
0.342362
0.343643
0.342362
0.343643
0.341080
0.341080
0.339799
0.339799
0.339799
0.337237
0.338518
0.337237
0.342362
0.335955
0.338518
0.335955
0.337237
0.337237
0.335955
0.334674
0.334674
0.335955
0.335955
0.338518
0.333393
0.333393
0.334674
0.332112
0.335955
0.341080
0.341080
0.341080
0.341080
0.346205
0.338518
0.338518
0.337237
0.338518
0.334674
0.329549
0.334674
0.335955
0.333393
0.333393
0.333393
0.342362
0.335955
0.328268
0.321862
0.321862
0.320580
0.321862
0.338518
0.344924
0.350049
0.357737
0.360299
0.369268
0.385924
0.400018
0.400018
0.401299
0.400018
0.396174
0.397456
0.393612
0.393612
0.389768
0.388487
0.389768
0.385924
0.384643
0.380799
0.376956
0.383362
0.378237
0.379518
0.378237
0.378237
0.379518
0.375674
0.380799
0.374393
0.379518
0.380799
0.376956
0.375674
0.375674
0.374393
0.374393
0.374393
0.375674
0.375674
0.373112
0.373112
0.373112
0.373112
0.371831
0.373112
0.374393
0.376956
0.370549
0.371831
0.369268
0.371831
0.370549
0.369268
0.366706
0.366706
0.366706
0.369268
0.370549
0.371831
0.373112
0.375674
0.373112
0.376956
0.376956
0.374393
0.367987
0.379518
0.375674
0.380799
0.376956
0.375674
0.371831
0.373112
0.374393
0.375674
0.375674
0.374393
0.374393
0.373112
0.371831
0.371831
0.373112
0.375674
0.371831
0.369268
0.369268
0.366706
0.366706
0.366706
0.369268
0.366706
0.370549
0.365424
0.370549
0.364143
0.366706
0.365424
0.364143
0.362862
0.362862
0.361580
0.369268
0.365424
0.365424
0.362862
0.362862
0.362862
0.362862
0.362862
0.361580
0.362862
0.361580
0.359018
0.360299
0.360299
0.360299
0.357737
0.357737
0.360299
0.360299
0.360299
0.361580
0.361580
0.361580
0.361580
0.360299
0.360299
0.365424
0.360299
0.362862
0.360299
0.361580
0.360299
0.364143
0.360299
0.359018
0.359018
0.359018
0.357737
0.360299
0.359018
0.359018
0.357737
0.359018
0.362862
0.350049
0.359018
0.359018
0.357737
0.357737
0.355174
0.359018
0.360299
0.359018
0.361580
0.357737
0.357737
0.357737
0.360299
0.364143
0.364143
0.362862
0.364143
0.367987
0.365424
0.364143
0.365424
0.362862
0.364143
0.367987
0.366706
0.370549
0.370549
0.373112
0.373112
0.376956
0.374393
0.376956
0.374393
0.374393
0.371831
0.375674
0.371831
0.371831
0.369268
0.370549
0.370549
0.369268
0.367987
0.367987
0.367987
0.366706
0.370549
0.367987
0.365424
0.370549
0.369268
0.364143
0.365424
0.366706
0.367987
0.370549
0.371831
0.370549
0.367987
0.366706
0.366706
0.370549
0.366706
0.369268
0.364143
0.365424
0.365424
0.366706
0.364143
0.360299
0.335955
0.334674
0.332112
0.324424
0.333393
0.323143
0.328268
0.334674
0.329549
0.326987
0.328268
0.330830
0.330830
0.329549
0.326987
0.326987
0.328268
0.328268
0.326987
0.323143
0.323143
0.321862
0.319299
0.315455
0.315455
0.314174
0.315455
0.314174
0.314174
0.333393
0.342362
0.344924
0.346205
0.344924
0.348768
0.347487
0.344924
0.346205
0.347487
0.351330
0.347487
0.347487
0.346205
0.344924
0.347487
0.346205
0.346205
0.347487
0.343643
0.350049
0.344924
0.344924
0.348768
0.348768
0.347487
0.350049
0.347487
0.350049
0.346205
0.347487
0.348768
0.351330
0.346205
0.346205
0.348768
0.347487
0.346205
0.344924
0.341080
0.342362
0.343643
0.346205
0.343643
0.344924
0.347487
0.347487
0.344924
0.343643
0.346205
0.342362
0.344924
0.342362
0.346205
0.344924
0.343643
0.344924
0.344924
0.343643
0.344924
0.341080
0.344924
0.342362
0.343643
0.339799
0.341080
0.341080
0.339799
0.343643
0.342362
0.344924
0.342362
0.347487
0.342362
0.335955
0.324424
0.319299
0.323143
0.329549
0.342362
0.343643
0.347487
0.352612
0.359018
0.357737
0.361580
0.361580
0.361580
0.361580
0.364143
0.366706
0.362862
0.362862
0.362862
0.362862
0.361580
0.360299
0.361580
0.362862
0.364143
0.365424
0.366706
0.364143
0.365424
0.364143
0.362862
0.367987
0.373112
0.371831
0.366706
0.366706
0.370549
0.370549
0.365424
0.364143
0.362862
0.362862
0.365424
0.366706
0.365424
0.365424
0.367987
0.367987
0.364143
0.366706
0.364143
0.364143
0.362862
0.364143
0.361580
0.366706
0.362862
0.362862
0.367987
0.361580
0.361580
0.362862
0.362862
0.362862
0.361580
0.353893
0.361580
0.362862
0.362862
0.361580
0.362862
0.359018
0.360299
0.364143
0.362862
0.360299
0.362862
0.359018
0.360299
0.361580
0.361580
0.361580
0.361580
0.360299
0.360299
0.364143
0.361580
0.361580
0.359018
0.359018
0.357737
0.360299
0.360299
0.361580
0.360299
0.356455
0.359018
0.360299
0.360299
0.357737
0.359018
0.357737
0.359018
0.360299
0.357737
0.357737
0.357737
0.356455
0.357737
0.355174
0.355174
0.356455
0.359018
0.356455
0.357737
0.356455
0.356455
0.357737
0.357737
0.359018
0.353893
0.353893
0.355174
0.355174
0.353893
0.356455
0.353893
0.352612
0.355174
0.355174
0.353893
0.355174
0.352612
0.353893
0.353893
0.351330
0.352612
0.351330
0.353893
0.351330
0.357737
0.353893
0.353893
0.359018
0.353893
0.347487
0.353893
0.359018
0.352612
0.356455
0.353893
0.352612
0.359018
0.353893
0.353893
0.351330
0.353893
0.353893
0.353893
0.353893
0.351330
0.352612
0.352612
0.352612
0.353893
0.353893
0.352612
0.356455
0.356455
0.359018
0.355174
0.353893
0.352612
0.352612
0.347487
0.344924
0.347487
0.346205
0.347487
0.353893
0.357737
0.352612
0.360299
0.366706
0.376956
0.373112
0.375674
0.378237
0.376956
0.379518
0.378237
0.376956
0.373112
0.374393
0.374393
0.373112
0.373112
0.370549
0.374393
0.371831
0.371831
0.369268
0.375674
0.369268
0.370549
0.370549
0.369268
0.369268
0.370549
0.369268
0.367987
0.367987
0.366706
0.367987
0.367987
0.365424
0.364143
0.365424
0.364143
0.365424
0.364143
0.362862
0.365424
0.364143
0.364143
0.356455
0.361580
0.364143
0.365424
0.364143
0.361580
0.364143
0.361580
0.361580
0.364143
0.364143
0.362862
0.365424
0.356455
0.357737
0.361580
0.365424
0.362862
0.361580
0.364143
0.360299
0.362862
0.359018
0.360299
0.361580
0.360299
0.360299
0.359018
0.359018
0.361580
0.359018
0.362862
0.365424
0.360299
0.362862
0.360299
0.361580
0.360299
0.361580
0.361580
0.364143
0.360299
0.361580
0.361580
0.360299
0.362862
0.361580
0.360299
0.359018
0.365424
0.357737
0.359018
0.357737
0.356455
0.359018
0.359018
0.357737
0.361580
0.360299
0.361580
0.361580
0.362862
0.364143
0.362862
0.361580
0.365424
0.362862
0.362862
0.362862
0.361580
0.361580
0.361580
0.361580
0.361580
0.360299
0.359018
0.362862
0.361580
0.361580
0.360299
0.353893
0.360299
0.360299
0.361580
0.360299
0.365424
0.362862
0.361580
0.357737
0.362862
0.360299
0.362862
0.359018
0.359018
0.359018
0.359018
0.359018
0.361580
0.359018
0.357737
0.355174
0.359018
0.359018
0.356455
0.359018
0.360299
0.357737
0.359018
0.356455
0.360299
0.359018
0.357737
0.356455
0.355174
0.357737
0.355174
0.356455
0.356455
0.355174
0.353893
0.357737
0.338518
0.320580
0.324424
0.348768
0.357737
0.353893
0.351330
0.351330
0.366706
0.369268
0.392331
0.403862
0.414112
0.420518
0.441018
0.444862
0.446143
0.437174
0.437174
0.433331
0.429487
0.430768
0.426924
0.425643
0.425643
0.423081
0.421799
0.420518
0.423081
0.420518
0.419237
0.417956
0.417956
0.417956
0.417956
0.416674
0.415393
0.415393
0.416674
0.412831
0.416674
0.414112
0.412831
0.414112
0.410268
0.417956
0.424362
0.420518
0.424362
0.424362
0.425643
0.429487
0.438456
0.442299
0.451268
0.446143
0.453831
0.449987
0.453831
0.453831
0.457675
0.457675
0.457675
0.457675
0.458956
0.456393
0.453831
0.451268
0.448706
0.447425
0.449987
0.446143
0.443581
0.442299
0.441018
0.441018
0.444862
0.442299
0.443581
0.442299
0.442299
0.442299
0.442299
0.441018
0.441018
0.441018
0.438456
0.444862
0.441018
0.441018
0.442299
0.484581
0.487143
0.488425
0.492268
0.487143
0.493550
0.478175
0.476893
0.470487
0.474331
0.469206
0.467925
0.465362
0.464081
0.466643
0.465362
0.461518
0.464081
0.464081
0.458956
0.460237
0.460237
0.464081
0.458956
0.457675
0.457675
0.455112
0.455112
0.446143
0.455112
0.456393
0.461518
0.457675
0.478175
0.479456
0.475612
0.471768
0.469206
0.469206
0.466643
0.467925
0.466643
0.467925
0.467925
0.466643
0.469206
0.469206
0.473050
0.476893
0.471768
0.469206
0.466643
0.465362
0.462800
0.462800
0.467925
0.457675
0.462800
0.460237
0.456393
0.457675
0.453831
0.456393
0.453831
0.453831
0.451268
0.456393
0.453831
0.451268
0.451268
0.449987
0.448706
0.452550
0.451268
0.449987
0.449987
0.456393
0.462800
0.462800
0.470487
0.478175
0.479456
0.476893
0.475612
0.482018
0.478175
0.470487
0.473050
0.471768
0.467925
0.466643
0.467925
0.465362
0.465362
0.464081
0.464081
0.462800
0.460237
0.461518
0.465362
0.457675
0.457675
0.457675
0.453831
0.453831
0.449987
0.453831
0.449987
0.443581
0.451268
0.451268
0.455112
0.453831
0.449987
0.451268
0.462800
0.448706
0.451268
0.448706
0.444862
0.447425
0.444862
0.444862
0.441018
0.452550
0.455112
0.456393
0.456393
0.464081
0.460237
0.467925
0.467925
0.466643
0.466643
0.464081
0.464081
0.466643
0.462800
0.464081
0.462800
0.465362
0.460237
0.464081
0.457675
0.458956
0.464081
0.461518
0.457675
0.458956
0.458956
0.457675
0.456393
0.453831
0.455112
0.456393
0.452550
0.452550
0.452550
0.453831
0.448706
0.452550
0.449987
0.448706
0.447425
0.448706
0.444862
0.446143
0.446143
0.444862
0.446143
0.443581
0.441018
0.443581
0.443581
0.443581
0.442299
0.446143
0.444862
0.439737
0.439737
0.441018
0.438456
0.438456
0.439737
0.443581
0.437174
0.441018
0.438456
0.433331
0.444862
0.439737
0.437174
0.447425
0.452550
0.453831
0.449987
0.448706
0.451268
0.456393
0.456393
0.462800
0.464081
0.470487
0.466643
0.469206
0.467925
0.465362
0.462800
0.464081
0.465362
0.465362
0.461518
0.460237
0.460237
0.457675
0.458956
0.462800
0.460237
0.464081
0.461518
0.462800
0.456393
0.455112
0.455112
0.456393
0.453831
0.455112
0.453831
0.453831
0.464081
0.474331
0.462800
0.455112
0.451268
0.448706
0.448706
0.449987
0.448706
0.449987
0.448706
0.448706
0.449987
0.453831
0.452550
0.452550
0.449987
0.451268
0.451268
0.448706
0.449987
0.446143
0.444862
0.447425
0.448706
0.448706
0.448706
0.448706
0.449987
0.447425
0.444862
0.446143
0.449987
0.446143
0.444862
0.444862
0.448706
0.434612
0.435893
0.428206
0.433331
0.434612
0.433331
0.432049
0.432049
0.432049
0.430768
0.429487
0.435893
0.429487
0.428206
0.429487
0.429487
0.429487
0.432049
0.429487
0.429487
0.432049
0.429487
0.428206
0.428206
0.428206
0.424362
0.429487
0.425643
0.425643
0.425643
0.421799
0.424362
0.425643
0.421799
0.420518
0.419237
0.421799
0.419237
0.419237
0.419237
0.424362
0.419237
0.417956
0.415393
0.417956
0.416674
0.415393
0.415393
0.415393
0.416674
0.415393
0.419237
0.415393
0.415393
0.419237
0.421799
0.420518
0.419237
0.412831
0.414112
0.414112
0.411549
0.411549
0.411549
0.411549
0.410268
0.410268
0.410268
0.410268
0.414112
0.415393
0.411549
0.408987
0.408987
0.406424
0.408987
0.406424
0.405143
0.405143
0.408987
0.407706
0.412831
0.402581
0.414112
0.406424
0.415393
0.414112
0.410268
0.407706
0.408987
0.407706
0.407706
0.412831
0.407706
0.411549
0.414112
0.408987
0.410268
0.410268
0.410268
0.411549
0.410268
0.410268
0.410268
0.416674
0.406424
0.406424
0.408987
0.407706
0.405143
0.407706
0.405143
0.405143
0.405143
0.406424
0.406424
0.403862
0.402581
0.402581
0.406424
0.403862
0.405143
0.403862
0.401299
0.405143
0.401299
0.406424
0.400018
0.401299
0.400018
0.401299
0.397456
0.402581
0.397456
0.396174
0.398737
0.398737
0.398737
0.401299
0.405143
0.412831
0.412831
0.417956
0.420518
0.423081
0.420518
0.415393
0.412831
0.411549
0.416674
0.412831
0.415393
0.423081
0.416674
0.416674
0.417956
0.412831
0.414112
0.412831
0.416674
0.410268
0.410268
0.401299
0.411549
0.407706
0.408987
0.407706
0.407706
0.411549
0.411549
0.412831
0.412831
0.412831
0.411549
0.414112
0.414112
0.412831
0.411549
0.415393
0.416674
0.416674
0.417956
0.415393
0.419237
0.416674
0.419237
0.414112
0.412831
0.412831
0.412831
0.415393
0.414112
0.415393
0.414112
0.415393
0.414112
0.410268
0.412831
0.411549
0.410268
0.412831
0.410268
0.411549
0.410268
0.408987
0.407706
0.408987
0.414112
0.407706
0.410268
0.406424
0.408987
0.405143
0.407706
0.408987
0.405143
0.406424
0.406424
0.405143
0.406424
0.403862
0.410268
0.405143
0.403862
0.403862
0.403862
0.401299
0.403862
0.405143
0.403862
0.402581
0.402581
0.401299
0.400018
0.405143
0.402581
0.402581
0.403862
0.401299
0.401299
0.400018
0.401299
0.396174
0.400018
0.400018
0.398737
0.398737
0.398737
0.397456
0.398737
0.400018
0.398737
0.398737
0.401299
0.396174
0.396174
0.393612
0.394893
0.397456
0.394893
0.396174
0.396174
0.396174
0.396174
0.397456
0.398737
0.398737
0.396174
0.398737
0.405143
0.402581
0.407706
0.414112
0.407706
0.402581
0.402581
0.402581
0.402581
0.401299
0.402581
0.402581
0.402581
0.401299
0.401299
0.403862
0.398737
0.400018
0.401299
0.398737
0.401299
0.401299
0.400018
0.406424
0.396174
0.366706
0.373112
0.376956
0.382081
0.394893
0.411549
0.412831
0.439737
0.442299
0.442299
0.442299
0.442299
0.438456
0.439737
0.435893
0.434612
0.430768
0.429487
0.432049
0.429487
0.426924
0.425643
0.424362
0.421799
0.421799
0.419237
0.419237
0.419237
0.416674
0.417956
0.420518
0.416674
0.417956
0.417956
0.416674
0.415393
0.414112
0.414112
0.417956
0.414112
0.414112
0.415393
0.412831
0.412831
0.411549
0.408987
0.416674
0.410268
0.410268
0.415393
0.408987
0.408987
0.408987
0.408987
0.407706
0.406424
0.405143
0.412831
0.406424
0.406424
0.407706
0.406424
0.403862
0.405143
0.403862
0.401299
0.405143
0.407706
0.401299
0.401299
0.401299
0.402581
0.401299
0.401299
0.402581
0.400018
0.401299
0.400018
0.400018
0.398737
0.396174
0.398737
0.397456
0.401299
0.403862
0.398737
0.397456
0.401299
0.398737
0.394893
0.396174
0.401299
0.397456
0.394893
0.393612
0.394893
0.393612
0.394893
0.396174
0.393612
0.392331
0.393612
0.396174
0.393612
0.394893
0.394893
0.393612
0.398737
0.385924
0.392331
0.392331
0.393612
0.391049
0.389768
0.389768
0.392331
0.392331
0.391049
0.392331
0.393612
0.389768
0.388487
0.389768
0.388487
0.391049
0.391049
0.387206
0.392331
0.391049
0.392331
0.391049
0.389768
0.389768
0.391049
0.388487
0.388487
0.391049
0.392331
0.391049
0.392331
0.391049
0.391049
0.388487
0.391049
0.396174
0.388487
0.388487
0.393612
0.385924
0.387206
0.387206
0.389768
0.388487
0.388487
0.387206
0.387206
0.389768
0.392331
0.389768
0.393612
0.388487
0.387206
0.388487
0.388487
0.394893
0.393612
0.389768
0.389768
0.391049
0.391049
0.389768
0.388487
0.387206
0.389768
0.391049
0.388487
0.391049
0.393612
0.385924
0.389768
0.385924
0.389768
0.388487
0.385924
0.387206
0.388487
0.385924
0.384643
0.382081
0.384643
0.385924
0.387206
0.391049
0.388487
0.387206
0.398737
0.411549
0.419237
0.420518
0.435893
0.456393
0.476893
0.489706
0.492268
0.494831
0.498675
0.498675
0.496112
0.497393
0.494831
0.488425
0.485862
0.487143
0.487143
0.480737
0.479456
0.482018
0.482018
0.484581
0.480737
0.483300
0.480737
0.474331
0.479456
0.482018
0.479456
0.475612
0.471768
0.478175
0.476893
0.478175
0.479456
0.480737
0.478175
0.478175
0.476893
0.476893
0.478175
0.476893
0.475612
0.474331
0.473050
0.473050
0.473050
0.474331
0.474331
0.469206
0.469206
0.471768
0.474331
0.473050
0.471768
0.471768
0.470487
0.471768
0.467925
0.466643
0.470487
0.465362
0.466643
0.466643
0.466643
0.466643
0.465362
0.466643
0.466643
0.465362
0.464081
0.458956
0.462800
0.465362
0.465362
0.461518
0.464081
0.462800
0.461518
0.460237
0.460237
0.461518
0.461518
0.460237
0.457675
0.458956
0.460237
0.458956
0.461518
0.465362
0.464081
0.455112
0.455112
0.455112
0.456393
0.455112
0.455112
0.458956
0.462800
0.458956
0.452550
0.452550
0.453831
0.458956
0.457675
0.451268
0.453831
0.453831
0.456393
0.455112
0.453831
0.453831
0.451268
0.458956
0.455112
0.453831
0.453831
0.453831
0.453831
0.457675
0.451268
0.456393
0.460237
0.461518
0.461518
0.462800
0.466643
0.475612
0.474331
0.473050
0.464081
0.453831
0.453831
0.455112
0.451268
0.452550
0.457675
0.452550
0.449987
0.458956
0.447425
0.455112
0.451268
0.452550
0.456393
0.464081
0.474331
0.457675
0.453831
0.457675
0.464081
0.448706
0.452550
0.449987
0.451268
0.458956
0.456393
0.449987
0.451268
0.451268
0.455112
0.448706
0.455112
0.456393
0.452550
0.451268
0.453831
0.449987
0.452550
0.449987
0.452550
0.449987
0.449987
0.448706
0.451268
0.449987
0.448706
0.449987
0.447425
0.443581
0.447425
0.453831
0.460237
0.467925
0.467925
0.470487
0.470487
0.467925
0.467925
0.465362
0.465362
0.466643
0.469206
0.466643
0.469206
0.464081
0.452550
0.449987
0.451268
0.447425
0.444862
0.448706
0.447425
0.451268
0.448706
0.451268
0.447425
0.447425
0.444862
0.446143
0.448706
0.448706
0.455112
0.446143
0.462800
0.449987
0.452550
0.447425
0.448706
0.458956
0.448706
0.447425
0.447425
0.448706
0.446143
0.444862
0.443581
0.449987
0.451268
0.449987
0.447425
0.441018
0.447425
0.447425
0.447425
0.446143
0.446143
0.446143
0.448706
0.448706
0.447425
0.446143
0.446143
0.447425
0.446143
0.446143
0.448706
0.442299
0.429487
0.423081
0.444862
0.446143
0.446143
0.444862
0.444862
0.448706
0.449987
0.447425
0.448706
0.444862
0.448706
0.446143
0.446143
0.446143
0.444862
0.446143
0.443581
0.442299
0.439737
0.443581
0.441018
0.449987
0.446143
0.444862
0.443581
0.441018
0.443581
0.443581
0.442299
0.441018
0.438456
0.438456
0.439737
0.437174
0.439737
0.439737
0.439737
0.439737
0.438456
0.437174
0.437174
0.439737
0.438456
0.435893
0.437174
0.437174
0.434612
0.434612
0.435893
0.437174
0.433331
0.435893
0.434612
0.432049
0.432049
0.432049
0.430768
0.432049
0.429487
0.430768
0.429487
0.423081
0.433331
0.434612
0.433331
0.434612
0.434612
0.435893
0.439737
0.434612
0.437174
0.434612
0.430768
0.432049
0.432049
0.433331
0.437174
0.434612
0.443581
0.435893
0.434612
0.433331
0.432049
0.434612
0.429487
0.429487
0.430768
0.429487
0.429487
0.429487
0.428206
0.428206
0.428206
0.430768
0.430768
0.428206
0.432049
0.435893
0.435893
0.435893
0.435893
0.433331
0.435893
0.433331
0.430768
0.430768
0.430768
0.429487
0.428206
0.426924
0.426924
0.432049
0.428206
0.429487
0.425643
0.426924
0.426924
0.430768
0.428206
0.425643
0.426924
0.425643
0.426924
0.428206
0.428206
0.430768
0.430768
0.432049
0.435893
0.433331
0.433331
0.434612
0.437174
0.435893
0.432049
0.432049
0.430768
0.432049
0.433331
0.433331
0.432049
0.420518
0.428206
0.426924
0.425643
0.423081
0.424362
0.421799
0.420518
0.421799
0.419237
0.421799
0.419237
0.421799
0.417956
0.420518
0.420518
0.417956
0.420518
0.424362
0.417956
0.419237
0.419237
0.420518
0.417956
0.416674
0.419237
0.421799
0.417956
0.417956
0.420518
0.410268
0.421799
0.424362
0.426924
0.428206
0.428206
0.426924
0.424362
0.424362
0.426924
0.428206
0.424362
0.414112
0.423081
0.429487
0.428206
0.426924
0.424362
0.420518
0.415393
0.425643
0.433331
0.428206
0.428206
0.428206
0.434612
0.432049
0.426924
0.428206
0.432049
0.425643
0.425643
0.424362
0.426924
0.420518
0.423081
0.423081
0.423081
0.415393
0.416674
0.423081
0.420518
0.424362
0.421799
0.420518
0.420518
0.417956
0.417956
0.419237
0.420518
0.411549
0.419237
0.420518
0.420518
0.419237
0.416674
0.419237
0.417956
0.417956
0.419237
0.417956
0.420518
0.420518
0.420518
0.420518
0.420518
0.419237
0.417956
0.417956
0.407706
0.403862
0.419237
0.424362
0.416674
0.420518
0.407706
0.415393
0.415393
0.416674
0.414112
0.414112
0.411549
0.411549
0.411549
0.411549
0.410268
0.410268
0.407706
0.407706
0.407706
0.410268
0.408987
0.408987
0.407706
0.411549
0.407706
0.411549
0.410268
0.410268
0.407706
0.406424
0.407706
0.407706
0.408987
0.406424
0.411549
0.405143
0.406424
0.407706
0.407706
0.406424
0.405143
0.405143
0.403862
0.406424
0.405143
0.407706
0.405143
0.408987
0.406424
0.406424
0.408987
0.406424
0.405143
0.403862
0.406424
0.406424
0.408987
0.403862
0.406424
0.405143
0.414112
0.411549
0.415393
0.412831
0.410268
0.410268
0.397456
0.392331
0.391049
0.389768
0.389768
0.391049
0.391049
0.393612
0.389768
0.388487
0.387206
0.387206
0.389768
0.385924
0.384643
0.387206
0.383362
0.383362
0.384643
0.382081
0.382081
0.382081
0.384643
0.383362
0.382081
0.383362
0.382081
0.383362
0.382081
0.383362
0.385924
0.382081
0.382081
0.382081
0.383362
0.379518
0.382081
0.378237
0.379518
0.376956
0.379518
0.378237
0.378237
0.378237
0.379518
0.394893
0.400018
0.403862
0.406424
0.406424
0.407706
0.407706
0.411549
0.411549
0.414112
0.420518
0.421799
0.414112
0.414112
0.415393
0.414112
0.414112
0.411549
0.412831
0.415393
0.417956
0.411549
0.415393
0.412831
0.412831
0.415393
0.415393
0.411549
0.407706
0.412831
0.412831
0.414112
0.412831
0.412831
0.415393
0.412831
0.410268
0.412831
0.411549
0.411549
0.408987
0.407706
0.408987
0.411549
0.411549
0.410268
0.411549
0.396174
0.402581
0.407706
0.406424
0.407706
0.410268
0.407706
0.398737
0.402581
0.406424
0.407706
0.406424
0.405143
0.406424
0.403862
0.402581
0.405143
0.405143
0.405143
0.405143
0.401299
0.401299
0.403862
0.403862
0.403862
0.411549
0.406424
0.408987
0.411549
0.411549
0.408987
0.408987
0.410268
0.408987
0.408987
0.406424
0.406424
0.405143
0.405143
0.405143
0.405143
0.405143
0.403862
0.408987
0.412831
0.414112
0.412831
0.415393
0.414112
0.415393
0.414112
0.412831
0.420518
0.414112
0.411549
0.410268
0.415393
0.407706
0.410268
0.407706
0.406424
0.400018
0.408987
0.410268
0.408987
0.414112
0.408987
0.415393
0.416674
0.412831
0.411549
0.412831
0.411549
0.411549
0.410268
0.408987
0.410268
0.410268
0.406424
0.408987
0.406424
0.407706
0.405143
0.406424
0.408987
0.406424
0.406424
0.403862
0.403862
0.408987
0.403862
0.401299
0.405143
0.403862
0.403862
0.402581
0.402581
0.402581
0.403862
0.398737
0.402581
0.405143
0.400018
0.398737
0.402581
0.401299
0.402581
0.401299
0.401299
0.400018
0.401299
0.398737
0.398737
0.396174
0.397456
0.397456
0.400018
0.400018
0.397456
0.398737
0.398737
0.397456
0.396174
0.397456
0.396174
0.398737
0.400018
0.397456
0.400018
0.400018
0.400018
0.398737
0.401299
0.400018
0.398737
0.400018
0.400018
0.405143
0.397456
0.398737
0.398737
0.392331
0.397456
0.398737
0.397456
0.397456
0.398737
0.402581
0.397456
0.398737
0.398737
0.398737
0.398737
0.397456
0.397456
0.397456
0.396174
0.394893
0.393612
0.396174
0.391049
0.394893
0.394893
0.391049
0.392331
0.396174
0.396174
0.396174
0.398737
0.400018
0.401299
0.403862
0.406424
0.402581
0.402581
0.402581
0.402581
0.405143
0.401299
0.402581
0.398737
0.398737
0.397456
0.400018
0.401299
0.400018
0.400018
0.397456
0.400018
0.397456
0.400018
0.398737
0.397456
0.397456
0.398737
0.398737
0.397456
0.397456
0.397456
0.397456
0.396174
0.398737
0.397456
0.394893
0.396174
0.393612
0.394893
0.400018
0.392331
0.394893
0.394893
0.393612
0.392331
0.393612
0.393612
0.393612
0.393612
0.394893
0.392331
0.394893
0.392331
0.384643
0.394893
0.391049
0.389768
0.391049
0.389768
0.391049
0.393612
0.392331
0.388487
0.391049
0.389768
0.388487
0.391049
0.387206
0.391049
0.391049
0.391049
0.392331
0.389768
0.391049
0.391049
0.391049
0.388487
0.389768
0.388487
0.388487
0.391049
0.389768
0.389768
0.389768
0.389768
0.388487
0.392331
0.388487
0.389768
0.389768
0.394893
0.392331
0.397456
0.397456
0.401299
0.400018
0.403862
0.406424
0.402581
0.405143
0.405143
0.405143
0.403862
0.403862
0.402581
0.401299
0.403862
0.402581
0.403862
0.402581
0.403862
0.403862
0.403862
0.403862
0.402581
0.406424
0.403862
0.403862
0.405143
0.410268
0.402581
0.403862
0.403862
0.405143
0.402581
0.406424
0.407706
0.411549
0.414112
0.415393
0.417956
0.423081
0.423081
0.415393
0.417956
0.420518
0.419237
0.424362
0.416674
0.417956
0.417956
0.417956
0.416674
0.417956
0.423081
0.423081
0.424362
0.424362
0.425643
0.424362
0.425643
0.425643
0.425643
0.426924
0.424362
0.424362
0.426924
0.428206
0.426924
0.426924
0.424362
0.425643
0.428206
0.428206
0.428206
0.428206
0.429487
0.435893
0.433331
0.435893
0.438456
0.441018
0.444862
0.444862
0.444862
0.448706
0.452550
0.457675
0.457675
0.458956
0.458956
0.461518
0.458956
0.458956
0.458956
0.458956
0.453831
0.452550
0.456393
0.452550
0.446143
0.446143
0.449987
0.446143
0.444862
0.447425
0.448706
0.447425
0.446143
0.447425
0.443581
0.444862
0.443581
0.447425
0.447425
0.444862
0.447425
0.451268
0.444862
0.442299
0.443581
0.443581
0.443581
0.434612
0.446143
0.444862
0.447425
0.447425
0.449987
0.449987
0.452550
0.462800
0.462800
0.466643
0.455112
0.458956
0.458956
0.469206
0.370549
0.506362
0.489706
0.510206
0.599894
0.593487
0.592206
0.574269
0.580675
0.603737
0.490987
0.478175
0.469206
0.469206
0.461518
0.462800
0.455112
0.456393
0.462800
0.457675
0.460237
0.489706
0.485862
0.485862
0.482018
0.483300
0.475612
0.475612
0.476893
0.469206
0.465362
0.462800
0.466643
0.466643
0.470487
0.462800
0.462800
0.460237
0.457675
0.456393
0.451268
0.449987
0.448706
0.451268
0.449987
0.448706
0.446143
0.442299
0.442299
0.442299
0.441018
0.441018
0.435893
0.438456
0.437174
0.433331
0.434612
0.443581
0.448706
0.443581
0.453831
0.448706
0.449987
0.482018
0.492268
0.489706
0.502518
0.514050
0.523018
0.533269
0.555050
0.569144
0.574269
0.579394
0.553769
0.540956
0.538394
0.538394
0.538394
0.535831
0.539675
0.543519
0.549925
0.543519
0.543519
0.560175
0.548644
0.538394
0.565300
0.580675
0.558894
0.538394
0.535831
0.538394
0.520456
0.531987
0.538394
0.525581
0.551206
0.542237
0.520456
0.523018
0.575550
0.579394
0.612706
0.565300
0.578112
0.610144
0.647300
0.642175
0.643456
0.640894
0.639613
0.640894
0.638331
0.635769
0.633206
0.630644
0.628081
0.625519
0.621675
0.619113
0.619113
0.615269
0.615269
0.611425
0.608863
0.607581
0.605019
0.605019
0.603737
0.601175
0.599894
0.598612
0.598612
0.599894
0.593487
0.583237
0.571706
0.566581
0.569144
0.579394
0.569144
0.567862
0.567862
0.606300
0.610144
